fit_time[ns] Functional_fit[mV] Thermal_fit[mV]
3.700000 21.590757 20.200967
3.750000 21.422583 19.797099
3.800000 21.219726 19.401280
3.850000 20.978270 19.013340
3.900000 20.695466 18.633115
3.950000 20.369775 18.260442
4.000000 20.000875 17.895164
4.050000 19.589645 17.537128
4.100000 19.138116 17.186181
4.150000 18.649398 16.842177
4.200000 18.127585 16.504971
4.250000 17.577635 16.174423
4.300000 17.005234 15.850395
4.350000 16.416642 15.532752
4.400000 15.818540 15.221362
4.450000 15.217851 14.916096
4.500000 14.621578 14.616829
4.550000 14.036626 14.323437
4.600000 13.469649 14.035800
4.650000 12.926882 13.753799
4.700000 12.414012 13.477319
4.750000 11.936040 13.206248
4.800000 11.497182 12.940475
4.850000 11.100778 12.679891
4.900000 10.749225 12.424392
4.950000 10.443940 12.173874
5.000000 10.185341 11.928235
5.050000 9.972851 11.687377
5.100000 9.804931 11.451203
5.150000 9.679130 11.219617
5.200000 9.592161 10.992528
5.250000 9.539985 10.769845
5.300000 9.517927 10.551478
5.350000 9.520787 10.337341
5.400000 9.542980 10.127348
5.450000 9.578663 9.921417
5.500000 9.621883 9.719465
5.550000 9.666714 9.521413
5.600000 9.707395 9.327183
5.650000 9.738461 9.136699
5.700000 9.754865 8.949885
5.750000 9.752086 8.766667
5.800000 9.726226 8.586976
5.850000 9.674084 8.410739
5.900000 9.593225 8.237889
5.950000 9.482013 8.068357
6.000000 9.339638 7.902079
6.050000 9.166116 7.738989
6.100000 8.962271 7.579025
6.150000 8.729704 7.422123
6.200000 8.470732 7.268225
6.250000 8.188322 7.117270
6.300000 7.886010 6.969199
6.350000 7.567801 6.823957
6.400000 7.238067 6.681488
6.450000 6.901436 6.541736
6.500000 6.562675 6.404649
6.550000 6.226576 6.270174
6.600000 5.897839 6.138259
6.650000 5.580964 6.008854
6.700000 5.280147 5.881911
6.750000 4.999182 5.757380
6.800000 4.741385 5.635215
6.850000 4.509517 5.515370
6.900000 4.305730 5.397798
6.950000 4.131531 5.282456
7.000000 3.987751 5.169300
7.050000 3.874541 5.058287
7.100000 3.791378 4.949376
7.150000 3.737092 4.842525
7.200000 3.709902 4.737696
7.250000 3.707468 4.634847
7.300000 3.726959 4.533942
7.350000 3.765125 4.434941
7.400000 3.818381 4.337809
7.450000 3.882899 4.242508
7.500000 3.954698 4.149004
7.550000 4.029746 4.057262
7.600000 4.104048 3.967247
7.650000 4.173743 3.878926
7.700000 4.235193 3.792267
7.750000 4.285058 3.707238
7.800000 4.320375 3.623806
7.850000 4.338615 3.541942
7.900000 4.337739 3.461614
7.950000 4.316229 3.382794
8.000000 4.273121 3.305452
8.050000 4.208011 3.229561
8.100000 4.121056 3.155091
8.150000 4.012958 3.082017
8.200000 3.884938 3.010310
8.250000 3.738697 2.939945
8.300000 3.576362 2.870897
8.350000 3.400435 2.803139
8.400000 3.213718 2.736648
8.450000 3.019247 2.671399
8.500000 2.820214 2.607368
8.550000 2.619885 2.544531
8.600000 2.421526 2.482868
8.650000 2.228321 2.422354
8.700000 2.043302 2.362967
8.750000 1.869276 2.304688
8.800000 1.708767 2.247493
8.850000 1.563956 2.191364
8.900000 1.436640 2.136278
8.950000 1.328193 2.082218
9.000000 1.239544 2.029162
9.050000 1.171161 1.977092
9.100000 1.123050 1.925990
9.150000 1.094759 1.875837
9.200000 1.085403 1.826614
9.250000 1.093687 1.778305
9.300000 1.117946 1.730892
9.350000 1.156193 1.684358
9.400000 1.206165 1.638687
9.450000 1.265389 1.593861
9.500000 1.331239 1.549866
9.550000 1.401000 1.506685
9.600000 1.471938 1.464303
9.650000 1.541359 1.422705
9.700000 1.606674 1.381877
9.750000 1.665458 1.341803
9.800000 1.715502 1.302469
9.850000 1.754863 1.263862
9.900000 1.781902 1.225968
9.950000 1.795321 1.188773
10.000000 1.794179 1.152265
10.050000 1.777917 1.116430
10.100000 1.746356 1.081256
10.150000 1.699697 1.046730
10.200000 1.638509 1.012840
10.250000 1.563707 0.979575
10.300000 1.476524 0.946922
10.350000 1.378479 0.914870
10.400000 1.271330 0.883407
10.450000 1.157032 0.852524
10.500000 1.037685 0.822208
10.550000 0.915482 0.792450
10.600000 0.792656 0.763239
10.650000 0.671426 0.734564
10.700000 0.553943 0.706415
10.750000 0.442243 0.678784
10.800000 0.338200 0.651659
10.850000 0.243484 0.625033
10.900000 0.159526 0.598894
10.950000 0.087486 0.573235
11.000000 0.028235 0.548046
11.050000 -0.017662 0.523319
11.100000 -0.049958 0.499045
11.150000 -0.068717 0.475215
11.200000 -0.074312 0.451821
11.250000 -0.067410 0.428856
11.300000 -0.048948 0.406311
11.350000 -0.020109 0.384178
11.400000 0.017711 0.362450
11.450000 0.062940 0.341119
11.500000 0.113871 0.320178
11.550000 0.168702 0.299619
11.600000 0.225584 0.279436
11.650000 0.282661 0.259622
11.700000 0.338118 0.240169
11.750000 0.390218 0.221071
11.800000 0.437347 0.202322
11.850000 0.478044 0.183914
11.900000 0.511036 0.165842
11.950000 0.535265 0.148100
12.000000 0.549905 0.130681
12.050000 0.554380 0.113579
12.100000 0.548370 0.096789
12.150000 0.531820 0.080304
12.200000 0.504927 0.064120
12.250000 0.468138 0.048230
12.300000 0.422130 0.032629
12.350000 0.367793 0.017312
12.400000 0.306204 0.002273
12.450000 0.238594 -0.012492
12.500000 0.166323 -0.026989
12.550000 0.090840 -0.041222
12.600000 0.013648 -0.055197
12.650000 -0.063729 -0.068918
12.700000 -0.139788 -0.082390
12.750000 -0.213077 -0.095617
12.800000 -0.282233 -0.108604
12.850000 -0.346010 -0.121356
12.900000 -0.403304 -0.133876
12.950000 -0.453181 -0.146170
13.000000 -0.494895 -0.158240
13.050000 -0.527899 -0.170092
13.100000 -0.551858 -0.181729
13.150000 -0.566649 -0.193155
13.200000 -0.572367 -0.204374
13.250000 -0.569309 -0.215390
13.300000 -0.557973 -0.226206
13.350000 -0.539034 -0.236827
13.400000 -0.513332 -0.247255
13.450000 -0.481846 -0.257495
13.500000 -0.445667 -0.267550
13.550000 -0.405972 -0.277423
13.600000 -0.363997 -0.287117
13.650000 -0.321001 -0.296636
13.700000 -0.278242 -0.305984
13.750000 -0.236943 -0.315162
13.800000 -0.198268 -0.324174
13.850000 -0.163290 -0.333024
13.900000 -0.132974 -0.341714
13.950000 -0.108152 -0.350247
14.000000 -0.089507 -0.358626
14.050000 -0.077561 -0.366854
14.100000 -0.072664 -0.374933
14.150000 -0.074990 -0.382867
14.200000 -0.084535 -0.390658
14.250000 -0.101124 -0.398308
14.300000 -0.124412 -0.405821
14.350000 -0.153904 -0.413198
14.400000 -0.188962 -0.420442
14.450000 -0.228825 -0.427555
14.500000 -0.272632 -0.434541
14.550000 -0.319440 -0.441400
14.600000 -0.368252 -0.448137
14.650000 -0.418039 -0.454752
14.700000 -0.467764 -0.461248
14.750000 -0.516409 -0.467627
14.800000 -0.562998 -0.473891
14.850000 -0.606620 -0.480043
14.900000 -0.646445 -0.486084
14.950000 -0.681749 -0.492017
15.000000 -0.711924 -0.497842
15.050000 -0.736492 -0.503564
15.100000 -0.755114 -0.509182
15.150000 -0.767594 -0.514699
15.200000 -0.773883 -0.520118
15.250000 -0.774076 -0.525439
15.300000 -0.768408 -0.530665
15.350000 -0.757246 -0.535796
15.400000 -0.741077 -0.540836
15.450000 -0.720493 -0.545785
15.500000 -0.696181 -0.550646
15.550000 -0.668897 -0.555419
15.600000 -0.639452 -0.560107
15.650000 -0.608691 -0.564711
15.700000 -0.577473 -0.569232
15.750000 -0.546649 -0.573672
15.800000 -0.517043 -0.578032
15.850000 -0.489432 -0.582315
15.900000 -0.464530 -0.586521
15.950000 -0.442974 -0.590651
16.000000 -0.425306 -0.594708
16.050000 -0.411966 -0.598691
16.100000 -0.403280 -0.602604
16.150000 -0.399459 -0.606446
16.200000 -0.400592 -0.610220
16.250000 -0.406648 -0.613926
16.300000 -0.417480 -0.617566
16.350000 -0.432830 -0.621141
16.400000 -0.452334 -0.624652
16.450000 -0.475538 -0.628100
16.500000 -0.501907 -0.631487
16.550000 -0.530840 -0.634813
16.600000 -0.561686 -0.638079
16.650000 -0.593757 -0.641287
16.700000 -0.626352 -0.644438
16.750000 -0.658765 -0.647533
16.800000 -0.690310 -0.650572
16.850000 -0.720329 -0.653557
16.900000 -0.748216 -0.656489
16.950000 -0.773421 -0.659369
17.000000 -0.795468 -0.662197
17.050000 -0.813963 -0.664974
17.100000 -0.828602 -0.667702
17.150000 -0.839176 -0.670382
17.200000 -0.845576 -0.673013
17.250000 -0.847791 -0.675598
17.300000 -0.845907 -0.678137
17.350000 -0.840106 -0.680630
17.400000 -0.830656 -0.683079
17.450000 -0.817906 -0.685484
17.500000 -0.802276 -0.687846
17.550000 -0.784243 -0.690167
17.600000 -0.764332 -0.692446
17.650000 -0.743101 -0.694684
17.700000 -0.721128 -0.696883
17.750000 -0.698996 -0.699042
17.800000 -0.677283 -0.701163
17.850000 -0.656540 -0.703246
17.900000 -0.637289 -0.705292
17.950000 -0.620003 -0.707302
18.000000 -0.605100 -0.709276
18.050000 -0.592934 -0.711215
18.100000 -0.583786 -0.713119
18.150000 -0.577860 -0.714990
18.200000 -0.575279 -0.716827
18.250000 -0.576085 -0.718632
18.300000 -0.580237 -0.720404
18.350000 -0.587618 -0.722145
18.400000 -0.598034 -0.723855
18.450000 -0.611222 -0.725535
18.500000 -0.626860 -0.727185
18.550000 -0.644572 -0.728805
18.600000 -0.663939 -0.730397
18.650000 -0.684512 -0.731960
18.700000 -0.705820 -0.733496
18.750000 -0.727383 -0.735005
18.800000 -0.748723 -0.736486
18.850000 -0.769377 -0.737942
18.900000 -0.788905 -0.739371
18.950000 -0.806901 -0.740775
19.000000 -0.823002 -0.742155
19.050000 -0.836898 -0.743509
19.100000 -0.848334 -0.744840
19.150000 -0.857117 -0.746147
19.200000 -0.863121 -0.747431
19.250000 -0.866286 -0.748693
19.300000 -0.866622 -0.749931
19.350000 -0.864201 -0.751148
19.400000 -0.859163 -0.752344
19.450000 -0.851701 -0.753518
19.500000 -0.842066 -0.754671
19.550000 -0.830552 -0.755804
19.600000 -0.817493 -0.756917
19.650000 -0.803252 -0.758010
19.700000 -0.788211 -0.759084
19.750000 -0.772767 -0.760139
19.800000 -0.757315 -0.761175
19.850000 -0.742244 -0.762192
19.900000 -0.727927 -0.763192
19.950000 -0.714710 -0.764174
20.000000 -0.702907 -0.765139
20.050000 -0.692794 -0.766086
20.100000 -0.684598 -0.767017
20.150000 -0.678500 -0.767932
20.200000 -0.674625 -0.768830
20.250000 -0.673044 -0.769712
20.300000 -0.673773 -0.770579
20.350000 -0.676771 -0.771430
20.400000 -0.681945 -0.772267
20.450000 -0.689152 -0.773088
20.500000 -0.698204 -0.773895
20.550000 -0.708872 -0.774688
20.600000 -0.720892 -0.775467
20.650000 -0.733974 -0.776232
20.700000 -0.747809 -0.776983
20.750000 -0.762073 -0.777721
20.800000 -0.776440 -0.778447
20.850000 -0.790586 -0.779159
20.900000 -0.804199 -0.779859
20.950000 -0.816984 -0.780546
21.000000 -0.828671 -0.781221
21.050000 -0.839021 -0.781885
21.100000 -0.847832 -0.782537
21.150000 -0.854939 -0.783177
21.200000 -0.860222 -0.783806
21.250000 -0.863606 -0.784423
21.300000 -0.865060 -0.785030
21.350000 -0.864601 -0.785626
21.400000 -0.862290 -0.786212
21.450000 -0.858229 -0.786787
21.500000 -0.852561 -0.787353
21.550000 -0.845462 -0.787908
21.600000 -0.837140 -0.788453
21.650000 -0.827826 -0.788989
21.700000 -0.817772 -0.789515
21.750000 -0.807241 -0.790032
21.800000 -0.796502 -0.790540
21.850000 -0.785823 -0.791039
21.900000 -0.775468 -0.791530
21.950000 -0.765687 -0.792011
22.000000 -0.756709 -0.792484
22.050000 -0.748743 -0.792949
22.100000 -0.741969 -0.793406
22.150000 -0.736535 -0.793854
22.200000 -0.732554 -0.794295
22.250000 -0.730103 -0.794728
22.300000 -0.729223 -0.795153
22.350000 -0.729913 -0.795571
22.400000 -0.732139 -0.795981
22.450000 -0.735829 -0.796385
22.500000 -0.740878 -0.796781
22.550000 -0.747150 -0.797170
22.600000 -0.754484 -0.797552
22.650000 -0.762697 -0.797928
22.700000 -0.771587 -0.798297
22.750000 -0.780941 -0.798659
22.800000 -0.790538 -0.799015
22.850000 -0.800155 -0.799365
22.900000 -0.809574 -0.799709
22.950000 -0.818585 -0.800046
23.000000 -0.826990 -0.800378
23.050000 -0.834611 -0.800704
23.100000 -0.841290 -0.801024
23.150000 -0.846896 -0.801339
23.200000 -0.851323 -0.801648
23.250000 -0.854497 -0.801951
23.300000 -0.856372 -0.802250
23.350000 -0.856937 -0.802543
23.400000 -0.856210 -0.802830
23.450000 -0.854238 -0.803113
23.500000 -0.851099 -0.803391
23.550000 -0.846893 -0.803664
23.600000 -0.841748 -0.803932
23.650000 -0.835808 -0.804196
23.700000 -0.829234 -0.804454
23.750000 -0.822200 -0.804709
23.800000 -0.814885 -0.804958
23.850000 -0.807473 -0.805204
23.900000 -0.800147 -0.805445
23.950000 -0.793083 -0.805682
24.000000 -0.786448 -0.805915
24.050000 -0.780397 -0.806143
24.100000 -0.775067 -0.806368
24.150000 -0.770574 -0.806589
24.200000 -0.767015 -0.806805
24.250000 -0.764460 -0.807019
24.300000 -0.762957 -0.807228
24.350000 -0.762526 -0.807433
24.400000 -0.763162 -0.807635
24.450000 -0.764834 -0.807834
24.500000 -0.767490 -0.808029
24.550000 -0.771051 -0.808220
24.600000 -0.775422 -0.808409
24.650000 -0.780489 -0.808594
24.700000 -0.786124 -0.808775
24.750000 -0.792188 -0.808954
24.800000 -0.798533 -0.809129
24.850000 -0.805010 -0.809301
24.900000 -0.811467 -0.809471
24.950000 -0.817756 -0.809637
25.000000 -0.823737 -0.809800
25.050000 -0.829277 -0.809961
25.100000 -0.834258 -0.810119
25.150000 -0.838577 -0.810274
25.200000 -0.842148 -0.810426
25.250000 -0.844905 -0.810576
25.300000 -0.846801 -0.810722
25.350000 -0.847811 -0.810867
25.400000 -0.847932 -0.811009
25.450000 -0.847180 -0.811148
25.500000 -0.845593 -0.811285
25.550000 -0.843227 -0.811420
25.600000 -0.840156 -0.811552
25.650000 -0.836468 -0.811682
25.700000 -0.832265 -0.811809
25.750000 -0.827659 -0.811935
25.800000 -0.822768 -0.812058
25.850000 -0.817716 -0.812179
25.900000 -0.812629 -0.812298
25.950000 -0.807629 -0.812415
26.000000 -0.802836 -0.812529
26.050000 -0.798361 -0.812642
26.100000 -0.794307 -0.812753
26.150000 -0.790764 -0.812862
26.200000 -0.787808 -0.812969
26.250000 -0.785500 -0.813074
26.300000 -0.783886 -0.813177
26.350000 -0.782993 -0.813279
26.400000 -0.782830 -0.813378
26.450000 -0.783391 -0.813476
26.500000 -0.784651 -0.813573
26.550000 -0.786569 -0.813667
26.600000 -0.789090 -0.813760
26.650000 -0.792145 -0.813851
26.700000 -0.795655 -0.813941
26.750000 -0.799531 -0.814029
26.800000 -0.803676 -0.814116
26.850000 -0.807989 -0.814201
26.900000 -0.812369 -0.814284
26.950000 -0.816711 -0.814366
27.000000 -0.820917 -0.814447
27.050000 -0.824892 -0.814526
27.100000 -0.828549 -0.814604
27.150000 -0.831808 -0.814681
27.200000 -0.834602 -0.814756
27.250000 -0.836877 -0.814830
27.300000 -0.838589 -0.814902
27.350000 -0.839711 -0.814974
27.400000 -0.840229 -0.815044
27.450000 -0.840144 -0.815113
27.500000 -0.839470 -0.815180
27.550000 -0.838236 -0.815247
27.600000 -0.836484 -0.815312
27.650000 -0.834265 -0.815376
27.700000 -0.831643 -0.815439
27.750000 -0.828688 -0.815501
27.800000 -0.825477 -0.815562
27.850000 -0.822093 -0.815622
27.900000 -0.818620 -0.815681
27.950000 -0.815143 -0.815739
28.000000 -0.811744 -0.815795
28.050000 -0.808505 -0.815851
28.100000 -0.805500 -0.815906
28.150000 -0.802797 -0.815960
28.200000 -0.800454 -0.816013
28.250000 -0.798522 -0.816065
28.300000 -0.797040 -0.816116
28.350000 -0.796035 -0.816166
28.400000 -0.795524 -0.816215
28.450000 -0.795510 -0.816264
28.500000 -0.795986 -0.816311
28.550000 -0.796932 -0.816358
28.600000 -0.798318 -0.816404
28.650000 -0.800105 -0.816449
28.700000 -0.802244 -0.816493
28.750000 -0.804678 -0.816537
28.800000 -0.807347 -0.816580
28.850000 -0.810183 -0.816622
28.900000 -0.813118 -0.816663
28.950000 -0.816082 -0.816704
29.000000 -0.819005 -0.816744
29.050000 -0.821820 -0.816783
29.100000 -0.824464 -0.816822
29.150000 -0.826878 -0.816859
29.200000 -0.829011 -0.816897
29.250000 -0.830818 -0.816933
29.300000 -0.832264 -0.816969
29.350000 -0.833323 -0.817004
29.400000 -0.833977 -0.817039
29.450000 -0.834220 -0.817073
29.500000 -0.834054 -0.817107
29.550000 -0.833492 -0.817140
29.600000 -0.832554 -0.817172
29.650000 -0.831272 -0.817204
29.700000 -0.829682 -0.817235
29.750000 -0.827829 -0.817266
29.800000 -0.825761 -0.817296
29.850000 -0.823532 -0.817325
29.900000 -0.821199 -0.817355
29.950000 -0.818819 -0.817383
30.000000 -0.816450 -0.817411
30.050000 -0.814148 -0.817439
30.100000 -0.811966 -0.817466
30.150000 -0.809955 -0.817493
30.200000 -0.808160 -0.817519
30.250000 -0.806618 -0.817545
30.300000 -0.805363 -0.817570
30.350000 -0.804420 -0.817595
30.400000 -0.803804 -0.817619
30.450000 -0.803526 -0.817643
30.500000 -0.803586 -0.817667
30.550000 -0.803977 -0.817690
30.600000 -0.804684 -0.817713
30.650000 -0.805684 -0.817735
30.700000 -0.806950 -0.817757
30.750000 -0.808447 -0.817779
30.800000 -0.810137 -0.817800
30.850000 -0.811975 -0.817821
30.900000 -0.813916 -0.817841
30.950000 -0.815914 -0.817862
31.000000 -0.817921 -0.817881
31.050000 -0.819888 -0.817901
31.100000 -0.821773 -0.817920
31.150000 -0.823531 -0.817939
31.200000 -0.825124 -0.817957
31.250000 -0.826519 -0.817975
31.300000 -0.827686 -0.817993
31.350000 -0.828603 -0.818011
31.400000 -0.829253 -0.818028
31.450000 -0.829626 -0.818045
31.500000 -0.829720 -0.818061
31.550000 -0.829537 -0.818078
31.600000 -0.829087 -0.818094
31.650000 -0.828386 -0.818109
31.700000 -0.827456 -0.818125
31.750000 -0.826324 -0.818140
31.800000 -0.825020 -0.818155
31.850000 -0.823579 -0.818170
31.900000 -0.822037 -0.818184
31.950000 -0.820433 -0.818198
32.000000 -0.818806 -0.818212
32.050000 -0.817196 -0.818226
32.100000 -0.815641 -0.818240
32.150000 -0.814176 -0.818253
32.200000 -0.812834 -0.818266
32.250000 -0.811646 -0.818279
32.300000 -0.810636 -0.818291
32.350000 -0.809825 -0.818303
32.400000 -0.809230 -0.818316
32.450000 -0.808860 -0.818327
32.500000 -0.808720 -0.818339
32.550000 -0.808809 -0.818351
32.600000 -0.809122 -0.818362
32.650000 -0.809647 -0.818373
32.700000 -0.810368 -0.818384
32.750000 -0.811264 -0.818395
32.800000 -0.812311 -0.818405
32.850000 -0.813483 -0.818416
32.900000 -0.814749 -0.818426
32.950000 -0.816077 -0.818436
33.000000 -0.817437 -0.818446
33.050000 -0.818795 -0.818455
33.100000 -0.820120 -0.818465
33.150000 -0.821380 -0.818474
33.200000 -0.822549 -0.818483
33.250000 -0.823600 -0.818492
33.300000 -0.824511 -0.818501
33.350000 -0.825263 -0.818510
33.400000 -0.825842 -0.818518
33.450000 -0.826238 -0.818527
33.500000 -0.826444 -0.818535
33.550000 -0.826460 -0.818543
33.600000 -0.826289 -0.818551
33.650000 -0.825939 -0.818559
33.700000 -0.825421 -0.818567
33.750000 -0.824752 -0.818574
33.800000 -0.823949 -0.818582
33.850000 -0.823036 -0.818589
33.900000 -0.822034 -0.818596
33.950000 -0.820970 -0.818603
34.000000 -0.819870 -0.818610
34.050000 -0.818761 -0.818617
34.100000 -0.817670 -0.818624
34.150000 -0.816621 -0.818630
34.200000 -0.815639 -0.818637
34.250000 -0.814747 -0.818643
34.300000 -0.813963 -0.818649
34.350000 -0.813304 -0.818655
34.400000 -0.812783 -0.818661
34.450000 -0.812411 -0.818667
34.500000 -0.812194 -0.818673
34.550000 -0.812133 -0.818679
34.600000 -0.812228 -0.818685
34.650000 -0.812473 -0.818690
34.700000 -0.812860 -0.818695
34.750000 -0.813377 -0.818701
34.800000 -0.814011 -0.818706
34.850000 -0.814743 -0.818711
34.900000 -0.815555 -0.818716
34.950000 -0.816426 -0.818721
35.000000 -0.817335 -0.818726
35.050000 -0.818260 -0.818731
35.100000 -0.819179 -0.818736
35.150000 -0.820070 -0.818740
35.200000 -0.820913 -0.818745
35.250000 -0.821689 -0.818749
35.300000 -0.822381 -0.818754
35.350000 -0.822975 -0.818758
35.400000 -0.823458 -0.818762
35.450000 -0.823822 -0.818766
35.500000 -0.824060 -0.818771
35.550000 -0.824168 -0.818775
35.600000 -0.824147 -0.818779
35.650000 -0.824001 -0.818782
35.700000 -0.823734 -0.818786
35.750000 -0.823355 -0.818790
35.800000 -0.822876 -0.818794
35.850000 -0.822309 -0.818797
35.900000 -0.821671 -0.818801
35.950000 -0.820976 -0.818804
36.000000 -0.820244 -0.818808
36.050000 -0.819491 -0.818811
36.100000 -0.818737 -0.818815
36.150000 -0.817998 -0.818818
36.200000 -0.817292 -0.818821
36.250000 -0.816636 -0.818824
36.300000 -0.816044 -0.818827
36.350000 -0.815528 -0.818830
36.400000 -0.815100 -0.818833
36.450000 -0.814768 -0.818836
36.500000 -0.814538 -0.818839
36.550000 -0.814414 -0.818842
36.600000 -0.814396 -0.818845
36.650000 -0.814484 -0.818848
36.700000 -0.814673 -0.818850
36.750000 -0.814957 -0.818853
36.800000 -0.815327 -0.818856
36.850000 -0.815774 -0.818858
36.900000 -0.816285 -0.818861
36.950000 -0.816847 -0.818863
37.000000 -0.817446 -0.818866
37.050000 -0.818067 -0.818868
37.100000 -0.818696 -0.818870
37.150000 -0.819317 -0.818873
37.200000 -0.819916 -0.818875
37.250000 -0.820479 -0.818877
37.300000 -0.820994 -0.818879
37.350000 -0.821449 -0.818882
37.400000 -0.821836 -0.818884
37.450000 -0.822145 -0.818886
37.500000 -0.822372 -0.818888
37.550000 -0.822513 -0.818890
