fit_time[ns] Functional_fit[mV] Thermal_fit[mV]
3.750000 21.400204 20.339921
3.800000 21.144857 19.924918
3.850000 20.866127 19.518331
3.900000 20.561001 19.119981
3.950000 20.227356 18.729692
4.000000 19.863998 18.347293
4.050000 19.470675 17.972618
4.100000 19.048073 17.605502
4.150000 18.597783 17.245785
4.200000 18.122249 16.893312
4.250000 17.624694 16.547929
4.300000 17.109030 16.209488
4.350000 16.579750 15.877843
4.400000 16.041807 15.552851
4.450000 15.500483 15.234372
4.500000 14.961252 14.922270
4.550000 14.429638 14.616412
4.600000 13.911079 14.316667
4.650000 13.410784 14.022909
4.700000 12.933607 13.735011
4.750000 12.483927 13.452854
4.800000 12.065543 13.176316
4.850000 11.681580 12.905282
4.900000 11.334418 12.639638
4.950000 11.025637 12.379272
5.000000 10.755983 12.124075
5.050000 10.525359 11.873940
5.100000 10.332827 11.628764
5.150000 10.176643 11.388443
5.200000 10.054304 11.152878
5.250000 9.962614 10.921972
5.300000 9.897767 10.695628
5.350000 9.855450 10.473753
5.400000 9.830945 10.256255
5.450000 9.819256 10.043046
5.500000 9.815225 9.834037
5.550000 9.813663 9.629143
5.600000 9.809478 9.428279
5.650000 9.797794 9.231364
5.700000 9.774071 9.038318
5.750000 9.734207 8.849061
5.800000 9.674639 8.663516
5.850000 9.592417 8.481609
5.900000 9.485274 8.303266
5.950000 9.351672 8.128414
6.000000 9.190829 7.956983
6.050000 9.002729 7.788903
6.100000 8.788114 7.624108
6.150000 8.548457 7.462530
6.200000 8.285914 7.304106
6.250000 8.003262 7.148771
6.300000 7.703826 6.996463
6.350000 7.391385 6.847121
6.400000 7.070077 6.700686
6.450000 6.744286 6.557100
6.500000 6.418534 6.416306
6.550000 6.097367 6.278247
6.600000 5.785237 6.142868
6.650000 5.486394 6.010117
6.700000 5.204780 5.879941
6.750000 4.943938 5.752288
6.800000 4.706922 5.627108
6.850000 4.496226 5.504351
6.900000 4.313731 5.383970
6.950000 4.160658 5.265917
7.000000 4.037549 5.150146
7.050000 3.944254 5.036612
7.100000 3.879945 4.925269
7.150000 3.843139 4.816075
7.200000 3.831745 4.708988
7.250000 3.843115 4.603964
7.300000 3.874117 4.500964
7.350000 3.921219 4.399948
7.400000 3.980574 4.300876
7.450000 4.048122 4.203710
7.500000 4.119689 4.108411
7.550000 4.191090 4.014945
7.600000 4.258236 3.923273
7.650000 4.317228 3.833362
7.700000 4.364451 3.745176
7.750000 4.396664 3.658681
7.800000 4.411071 3.573845
7.850000 4.405387 3.490634
7.900000 4.377886 3.409016
7.950000 4.327442 3.328962
8.000000 4.253543 3.250438
8.050000 4.156303 3.173417
8.100000 4.036447 3.097868
8.150000 3.895290 3.023763
8.200000 3.734695 2.951073
8.250000 3.557022 2.879770
8.300000 3.365064 2.809829
8.350000 3.161971 2.741221
8.400000 2.951170 2.673921
8.450000 2.736275 2.607904
8.500000 2.520996 2.543144
8.550000 2.309048 2.479618
8.600000 2.104052 2.417300
8.650000 1.909454 2.356168
8.700000 1.728435 2.296199
8.750000 1.563835 2.237369
8.800000 1.418092 2.179657
8.850000 1.293176 2.123042
8.900000 1.190551 2.067501
8.950000 1.111142 2.013014
9.000000 1.055316 1.959561
9.050000 1.022881 1.907121
9.100000 1.013091 1.855676
9.150000 1.024675 1.805205
9.200000 1.055870 1.755690
9.250000 1.104471 1.707112
9.300000 1.167888 1.659454
9.350000 1.243213 1.612698
9.400000 1.327300 1.566825
9.450000 1.416837 1.521820
9.500000 1.508435 1.477665
9.550000 1.598709 1.434345
9.600000 1.684363 1.391842
9.650000 1.762269 1.350142
9.700000 1.829544 1.309229
9.750000 1.883615 1.269087
9.800000 1.922283 1.229702
9.850000 1.943770 1.191060
9.900000 1.946760 1.153145
9.950000 1.930425 1.115945
10.000000 1.894444 1.079445
10.050000 1.838997 1.043633
10.100000 1.764767 1.008494
10.150000 1.672905 0.974016
10.200000 1.565006 0.940186
10.250000 1.443061 0.906993
10.300000 1.309402 0.874423
10.350000 1.166643 0.842465
10.400000 1.017611 0.811107
10.450000 0.865275 0.780337
10.500000 0.712668 0.750146
10.550000 0.562813 0.720520
10.600000 0.418650 0.691450
10.650000 0.282960 0.662926
10.700000 0.158300 0.634935
10.750000 0.046942 0.607470
10.800000 -0.049183 0.580518
10.850000 -0.128526 0.554072
10.900000 -0.189956 0.528120
10.950000 -0.232785 0.502654
11.000000 -0.256779 0.477665
11.050000 -0.262162 0.453143
11.100000 -0.249601 0.429079
11.150000 -0.220192 0.405465
11.200000 -0.175421 0.382293
11.250000 -0.117131 0.359553
11.300000 -0.047467 0.337238
11.350000 0.031176 0.315339
11.400000 0.116218 0.293850
11.450000 0.204955 0.272761
11.500000 0.294630 0.252065
11.550000 0.382504 0.231756
11.600000 0.465916 0.211825
11.650000 0.542356 0.192266
11.700000 0.609517 0.173071
11.750000 0.665359 0.154233
11.800000 0.708148 0.135747
11.850000 0.736502 0.117604
11.900000 0.749416 0.099799
11.950000 0.746288 0.082326
12.000000 0.726924 0.065177
12.050000 0.691544 0.048348
12.100000 0.640769 0.031831
12.150000 0.575602 0.015622
12.200000 0.497397 -0.000287
12.250000 0.407827 -0.015900
12.300000 0.308834 -0.031223
12.350000 0.202580 -0.046261
12.400000 0.091394 -0.061020
12.450000 -0.022293 -0.075506
12.500000 -0.136006 -0.089722
12.550000 -0.247287 -0.103675
12.600000 -0.353758 -0.117369
12.650000 -0.453176 -0.130809
12.700000 -0.543492 -0.144001
12.750000 -0.622894 -0.156947
12.800000 -0.689855 -0.169654
12.850000 -0.743163 -0.182125
12.900000 -0.781952 -0.194366
12.950000 -0.805716 -0.206380
13.000000 -0.814322 -0.218171
13.050000 -0.808006 -0.229745
13.100000 -0.787366 -0.241104
13.150000 -0.753343 -0.252253
13.200000 -0.707192 -0.263196
13.250000 -0.650451 -0.273937
13.300000 -0.584899 -0.284479
13.350000 -0.512509 -0.294826
13.400000 -0.435399 -0.304982
13.450000 -0.355776 -0.314951
13.500000 -0.275881 -0.324736
13.550000 -0.197937 -0.334339
13.600000 -0.124089 -0.343766
13.650000 -0.056353 -0.353019
13.700000 0.003427 -0.362101
13.750000 0.053630 -0.371015
13.800000 0.092893 -0.379765
13.850000 0.120139 -0.388354
13.900000 0.134605 -0.396784
13.950000 0.135856 -0.405059
14.000000 0.123790 -0.413182
14.050000 0.098640 -0.421154
14.100000 0.060966 -0.428980
14.150000 0.011632 -0.436662
14.200000 -0.048213 -0.444203
14.250000 -0.117170 -0.451605
14.300000 -0.193623 -0.458870
14.350000 -0.275788 -0.466002
14.400000 -0.361751 -0.473003
14.450000 -0.449522 -0.479874
14.500000 -0.537085 -0.486620
14.550000 -0.622444 -0.493241
14.600000 -0.703677 -0.499741
14.650000 -0.778981 -0.506122
14.700000 -0.846713 -0.512385
14.750000 -0.905433 -0.518533
14.800000 -0.953936 -0.524568
14.850000 -0.991276 -0.530492
14.900000 -1.016795 -0.536308
14.950000 -1.030127 -0.542017
15.000000 -1.031210 -0.547621
15.050000 -1.020283 -0.553122
15.100000 -0.997876 -0.558522
15.150000 -0.964796 -0.563823
15.200000 -0.922102 -0.569027
15.250000 -0.871079 -0.574136
15.300000 -0.813199 -0.579151
15.350000 -0.750089 -0.584074
15.400000 -0.683486 -0.588907
15.450000 -0.615191 -0.593651
15.500000 -0.547029 -0.598309
15.550000 -0.480799 -0.602881
15.600000 -0.418231 -0.607369
15.650000 -0.360947 -0.611775
15.700000 -0.310417 -0.616101
15.750000 -0.267929 -0.620347
15.800000 -0.234556 -0.624516
15.850000 -0.211132 -0.628608
15.900000 -0.198236 -0.632626
15.950000 -0.196179 -0.636570
16.000000 -0.204997 -0.640442
16.050000 -0.224457 -0.644243
16.100000 -0.254064 -0.647975
16.150000 -0.293073 -0.651638
16.200000 -0.340514 -0.655235
16.250000 -0.395218 -0.658766
16.300000 -0.455846 -0.662232
16.350000 -0.520923 -0.665635
16.400000 -0.588881 -0.668976
16.450000 -0.658092 -0.672256
16.500000 -0.726915 -0.675476
16.550000 -0.793733 -0.678637
16.600000 -0.856992 -0.681740
16.650000 -0.915244 -0.684787
16.700000 -0.967175 -0.687779
16.750000 -1.011641 -0.690716
16.800000 -1.047694 -0.693599
16.850000 -1.074600 -0.696429
16.900000 -1.091858 -0.699208
16.950000 -1.099211 -0.701937
17.000000 -1.096646 -0.704615
17.050000 -1.084395 -0.707245
17.100000 -1.062928 -0.709827
17.150000 -1.032932 -0.712362
17.200000 -0.995301 -0.714851
17.250000 -0.951105 -0.717294
17.300000 -0.901565 -0.719693
17.350000 -0.848020 -0.722048
17.400000 -0.791894 -0.724361
17.450000 -0.734658 -0.726631
17.500000 -0.677795 -0.728860
17.550000 -0.622762 -0.731048
17.600000 -0.570954 -0.733197
17.650000 -0.523674 -0.735307
17.700000 -0.482094 -0.737378
17.750000 -0.447237 -0.739411
17.800000 -0.419945 -0.741408
17.850000 -0.400864 -0.743368
17.900000 -0.390430 -0.745292
17.950000 -0.388861 -0.747182
18.000000 -0.396150 -0.749037
18.050000 -0.412072 -0.750859
18.100000 -0.436191 -0.752647
18.150000 -0.467870 -0.754403
18.200000 -0.506292 -0.756128
18.250000 -0.550480 -0.757820
18.300000 -0.599326 -0.759482
18.350000 -0.651614 -0.761114
18.400000 -0.706059 -0.762717
18.450000 -0.761331 -0.764290
18.500000 -0.816095 -0.765834
18.550000 -0.869040 -0.767351
18.600000 -0.918915 -0.768840
18.650000 -0.964555 -0.770302
18.700000 -1.004913 -0.771738
18.750000 -1.039080 -0.773147
18.800000 -1.066310 -0.774531
18.850000 -1.086037 -0.775890
18.900000 -1.097884 -0.777225
18.950000 -1.101672 -0.778535
19.000000 -1.097423 -0.779821
19.050000 -1.085357 -0.781084
19.100000 -1.065884 -0.782324
19.150000 -1.039592 -0.783542
19.200000 -1.007232 -0.784738
19.250000 -0.969696 -0.785912
19.300000 -0.927995 -0.787064
19.350000 -0.883229 -0.788196
19.400000 -0.836567 -0.789308
19.450000 -0.789208 -0.790399
19.500000 -0.742357 -0.791470
19.550000 -0.697195 -0.792522
19.600000 -0.654845 -0.793555
19.650000 -0.616352 -0.794570
19.700000 -0.582653 -0.795566
19.750000 -0.554556 -0.796544
19.800000 -0.532722 -0.797504
19.850000 -0.517650 -0.798447
19.900000 -0.509667 -0.799373
19.950000 -0.508921 -0.800282
20.000000 -0.515377 -0.801175
20.050000 -0.528825 -0.802052
20.100000 -0.548881 -0.802913
20.150000 -0.575003 -0.803758
20.200000 -0.606505 -0.804588
20.250000 -0.642572 -0.805403
20.300000 -0.682287 -0.806203
20.350000 -0.724650 -0.806989
20.400000 -0.768606 -0.807760
20.450000 -0.813071 -0.808518
20.500000 -0.856960 -0.809262
20.550000 -0.899213 -0.809992
20.600000 -0.938820 -0.810710
20.650000 -0.974847 -0.811414
20.700000 -1.006457 -0.812106
20.750000 -1.032933 -0.812785
20.800000 -1.053689 -0.813452
20.850000 -1.068288 -0.814107
20.900000 -1.076448 -0.814750
20.950000 -1.078051 -0.815382
21.000000 -1.073139 -0.816002
21.050000 -1.061917 -0.816611
21.100000 -1.044742 -0.817209
21.150000 -1.022114 -0.817796
21.200000 -0.994665 -0.818373
21.250000 -0.963136 -0.818939
21.300000 -0.928362 -0.819495
21.350000 -0.891251 -0.820041
21.400000 -0.852758 -0.820577
21.450000 -0.813861 -0.821104
21.500000 -0.775540 -0.821621
21.550000 -0.738748 -0.822128
21.600000 -0.704391 -0.822627
21.650000 -0.673308 -0.823116
21.700000 -0.646243 -0.823597
21.750000 -0.623838 -0.824069
21.800000 -0.606609 -0.824533
21.850000 -0.594941 -0.824988
21.900000 -0.589075 -0.825435
21.950000 -0.589110 -0.825874
22.000000 -0.594993 -0.826305
22.050000 -0.606530 -0.826729
22.100000 -0.623388 -0.827144
22.150000 -0.645106 -0.827553
22.200000 -0.671107 -0.827954
22.250000 -0.700715 -0.828347
22.300000 -0.733170 -0.828734
22.350000 -0.767650 -0.829114
22.400000 -0.803291 -0.829486
22.450000 -0.839211 -0.829853
22.500000 -0.874526 -0.830212
22.550000 -0.908380 -0.830565
22.600000 -0.939959 -0.830912
22.650000 -0.968515 -0.831253
22.700000 -0.993382 -0.831587
22.750000 -1.013990 -0.831915
22.800000 -1.029883 -0.832238
22.850000 -1.040725 -0.832555
22.900000 -1.046306 -0.832866
22.950000 -1.046552 -0.833171
23.000000 -1.041519 -0.833471
23.050000 -1.031392 -0.833766
23.100000 -1.016482 -0.834055
23.150000 -0.997214 -0.834339
23.200000 -0.974116 -0.834618
23.250000 -0.947805 -0.834892
23.300000 -0.918972 -0.835161
23.350000 -0.888362 -0.835425
23.400000 -0.856756 -0.835685
23.450000 -0.824953 -0.835939
23.500000 -0.793747 -0.836190
23.550000 -0.763909 -0.836435
23.600000 -0.736169 -0.836677
23.650000 -0.711198 -0.836914
23.700000 -0.689589 -0.837147
23.750000 -0.671848 -0.837375
23.800000 -0.658380 -0.837600
23.850000 -0.649479 -0.837820
23.900000 -0.645323 -0.838037
23.950000 -0.645973 -0.838249
24.000000 -0.651366 -0.838458
24.050000 -0.661328 -0.838663
24.100000 -0.675569 -0.838865
24.150000 -0.693698 -0.839062
24.200000 -0.715232 -0.839257
24.250000 -0.739609 -0.839447
24.300000 -0.766202 -0.839635
24.350000 -0.794335 -0.839819
24.400000 -0.823300 -0.839999
24.450000 -0.852380 -0.840177
24.500000 -0.880857 -0.840351
24.550000 -0.908038 -0.840522
24.600000 -0.933269 -0.840690
24.650000 -0.955951 -0.840855
24.700000 -0.975553 -0.841018
24.750000 -0.991626 -0.841177
24.800000 -1.003814 -0.841333
24.850000 -1.011859 -0.841487
24.900000 -1.015608 -0.841638
24.950000 -1.015018 -0.841786
25.000000 -1.010150 -0.841931
25.050000 -1.001173 -0.842074
25.100000 -0.988354 -0.842214
25.150000 -0.972054 -0.842352
25.200000 -0.952715 -0.842488
25.250000 -0.930849 -0.842621
25.300000 -0.907026 -0.842751
25.350000 -0.881858 -0.842879
25.400000 -0.855985 -0.843005
25.450000 -0.830057 -0.843129
25.500000 -0.804717 -0.843250
25.550000 -0.780590 -0.843370
25.600000 -0.758263 -0.843487
25.650000 -0.738270 -0.843602
25.700000 -0.721087 -0.843715
25.750000 -0.707111 -0.843826
25.800000 -0.696657 -0.843935
25.850000 -0.689950 -0.844042
25.900000 -0.687121 -0.844147
25.950000 -0.688202 -0.844250
26.000000 -0.693128 -0.844352
26.050000 -0.701740 -0.844451
26.100000 -0.713791 -0.844549
26.150000 -0.728950 -0.844645
26.200000 -0.746811 -0.844740
26.250000 -0.766909 -0.844832
26.300000 -0.788725 -0.844923
26.350000 -0.811705 -0.845013
26.400000 -0.835271 -0.845100
26.450000 -0.858837 -0.845187
26.500000 -0.881823 -0.845271
26.550000 -0.903667 -0.845354
26.600000 -0.923845 -0.845436
26.650000 -0.941876 -0.845516
26.700000 -0.957340 -0.845595
26.750000 -0.969881 -0.845673
26.800000 -0.979222 -0.845749
26.850000 -0.985167 -0.845823
26.900000 -0.987606 -0.845897
26.950000 -0.986516 -0.845969
27.000000 -0.981963 -0.846039
27.050000 -0.974096 -0.846109
27.100000 -0.963146 -0.846177
27.150000 -0.949417 -0.846244
27.200000 -0.933278 -0.846310
27.250000 -0.915156 -0.846375
27.300000 -0.895519 -0.846438
27.350000 -0.874870 -0.846500
27.400000 -0.853732 -0.846562
27.450000 -0.832634 -0.846622
27.500000 -0.812099 -0.846681
27.550000 -0.792629 -0.846739
27.600000 -0.774697 -0.846796
27.650000 -0.758731 -0.846852
27.700000 -0.745107 -0.846907
27.750000 -0.734140 -0.846961
27.800000 -0.726074 -0.847014
27.850000 -0.721080 -0.847066
27.900000 -0.719251 -0.847117
27.950000 -0.720601 -0.847167
28.000000 -0.725066 -0.847217
28.050000 -0.732504 -0.847265
28.100000 -0.742702 -0.847313
28.150000 -0.755380 -0.847360
28.200000 -0.770201 -0.847406
28.250000 -0.786778 -0.847451
28.300000 -0.804683 -0.847495
28.350000 -0.823462 -0.847539
28.400000 -0.842643 -0.847581
28.450000 -0.861747 -0.847623
28.500000 -0.880306 -0.847665
28.550000 -0.897867 -0.847705
28.600000 -0.914007 -0.847745
28.650000 -0.928342 -0.847784
28.700000 -0.940538 -0.847822
28.750000 -0.950316 -0.847860
28.800000 -0.957461 -0.847897
28.850000 -0.961824 -0.847933
28.900000 -0.963326 -0.847969
28.950000 -0.961961 -0.848004
29.000000 -0.957793 -0.848039
29.050000 -0.950955 -0.848073
29.100000 -0.941643 -0.848106
29.150000 -0.930115 -0.848138
29.200000 -0.916680 -0.848171
29.250000 -0.901688 -0.848202
29.300000 -0.885529 -0.848233
29.350000 -0.868613 -0.848263
29.400000 -0.851369 -0.848293
29.450000 -0.834226 -0.848323
29.500000 -0.817607 -0.848351
29.550000 -0.801920 -0.848380
29.600000 -0.787542 -0.848407
29.650000 -0.774816 -0.848435
29.700000 -0.764041 -0.848462
29.750000 -0.755463 -0.848488
29.800000 -0.749273 -0.848514
29.850000 -0.745600 -0.848539
29.900000 -0.744509 -0.848564
29.950000 -0.746001 -0.848589
30.000000 -0.750013 -0.848613
30.050000 -0.756421 -0.848636
30.100000 -0.765043 -0.848660
30.150000 -0.775642 -0.848682
30.200000 -0.787938 -0.848705
30.250000 -0.801609 -0.848727
30.300000 -0.816304 -0.848748
30.350000 -0.831649 -0.848770
30.400000 -0.847260 -0.848791
30.450000 -0.862747 -0.848811
30.500000 -0.877731 -0.848831
30.550000 -0.891846 -0.848851
30.600000 -0.904752 -0.848870
30.650000 -0.916144 -0.848889
30.700000 -0.925757 -0.848908
30.750000 -0.933370 -0.848927
30.800000 -0.938818 -0.848945
30.850000 -0.941988 -0.848962
30.900000 -0.942826 -0.848980
30.950000 -0.941335 -0.848997
31.000000 -0.937577 -0.849014
31.050000 -0.931668 -0.849030
31.100000 -0.923777 -0.849046
31.150000 -0.914120 -0.849062
31.200000 -0.902955 -0.849078
31.250000 -0.890572 -0.849093
31.300000 -0.877291 -0.849109
31.350000 -0.863450 -0.849123
31.400000 -0.849398 -0.849138
31.450000 -0.835483 -0.849152
31.500000 -0.822050 -0.849166
31.550000 -0.809425 -0.849180
31.600000 -0.797912 -0.849194
31.650000 -0.787786 -0.849207
31.700000 -0.779282 -0.849220
31.750000 -0.772594 -0.849233
31.800000 -0.767869 -0.849246
31.850000 -0.765205 -0.849258
31.900000 -0.764645 -0.849270
31.950000 -0.766183 -0.849282
32.000000 -0.769760 -0.849294
32.050000 -0.775265 -0.849306
32.100000 -0.782544 -0.849317
32.150000 -0.791398 -0.849328
32.200000 -0.801593 -0.849339
32.250000 -0.812864 -0.849350
32.300000 -0.824920 -0.849360
32.350000 -0.837456 -0.849371
32.400000 -0.850157 -0.849381
32.450000 -0.862709 -0.849391
32.500000 -0.874802 -0.849401
32.550000 -0.886143 -0.849410
32.600000 -0.896458 -0.849420
32.650000 -0.905505 -0.849429
32.700000 -0.913073 -0.849438
32.750000 -0.918989 -0.849447
32.800000 -0.923126 -0.849456
32.850000 -0.925399 -0.849465
32.900000 -0.925771 -0.849473
32.950000 -0.924254 -0.849482
33.000000 -0.920904 -0.849490
33.050000 -0.915823 -0.849498
33.100000 -0.909154 -0.849506
33.150000 -0.901080 -0.849514
33.200000 -0.891814 -0.849522
33.250000 -0.881598 -0.849529
33.300000 -0.870695 -0.849536
33.350000 -0.859381 -0.849544
33.400000 -0.847939 -0.849551
33.450000 -0.836656 -0.849558
33.500000 -0.825807 -0.849565
33.550000 -0.815658 -0.849571
33.600000 -0.806451 -0.849578
33.650000 -0.798405 -0.849585
33.700000 -0.791706 -0.849591
33.750000 -0.786508 -0.849597
33.800000 -0.782922 -0.849604
33.850000 -0.781022 -0.849610
33.900000 -0.780836 -0.849616
33.950000 -0.782353 -0.849621
34.000000 -0.785517 -0.849627
34.050000 -0.790232 -0.849633
34.100000 -0.796368 -0.849638
34.150000 -0.803757 -0.849644
34.200000 -0.812205 -0.849649
34.250000 -0.821491 -0.849654
34.300000 -0.831377 -0.849660
34.350000 -0.841614 -0.849665
34.400000 -0.851944 -0.849670
34.450000 -0.862112 -0.849675
34.500000 -0.871867 -0.849679
34.550000 -0.880974 -0.849684
34.600000 -0.889213 -0.849689
34.650000 -0.896391 -0.849693
34.700000 -0.902340 -0.849698
34.750000 -0.906927 -0.849702
34.800000 -0.910052 -0.849707
34.850000 -0.911653 -0.849711
34.900000 -0.911707 -0.849715
34.950000 -0.910227 -0.849719
35.000000 -0.907267 -0.849723
35.050000 -0.902915 -0.849727
35.100000 -0.897293 -0.849731
35.150000 -0.890553 -0.849735
35.200000 -0.882874 -0.849739
35.250000 -0.874454 -0.849742
35.300000 -0.865511 -0.849746
35.350000 -0.856269 -0.849749
35.400000 -0.846962 -0.849753
35.450000 -0.837819 -0.849756
35.500000 -0.829065 -0.849760
35.550000 -0.820914 -0.849763
35.600000 -0.813559 -0.849766
35.650000 -0.807174 -0.849769
35.700000 -0.801909 -0.849773
35.750000 -0.797880 -0.849776
35.800000 -0.795176 -0.849779
35.850000 -0.793850 -0.849782
35.900000 -0.793919 -0.849785
35.950000 -0.795369 -0.849787
36.000000 -0.798149 -0.849790
36.050000 -0.802177 -0.849793
36.100000 -0.807341 -0.849796
36.150000 -0.813501 -0.849798
36.200000 -0.820494 -0.849801
36.250000 -0.828140 -0.849804
36.300000 -0.836243 -0.849806
36.350000 -0.844598 -0.849809
36.400000 -0.852995 -0.849811
36.450000 -0.861227 -0.849814
36.500000 -0.869093 -0.849816
36.550000 -0.876401 -0.849818
36.600000 -0.882976 -0.849820
36.650000 -0.888665 -0.849823
36.700000 -0.893334 -0.849825
36.750000 -0.896880 -0.849827
36.800000 -0.899227 -0.849829
36.850000 -0.900328 -0.849831
36.900000 -0.900169 -0.849833
36.950000 -0.898768 -0.849835
37.000000 -0.896172 -0.849837
37.050000 -0.892457 -0.849839
37.100000 -0.887727 -0.849841
37.150000 -0.882109 -0.849843
37.200000 -0.875752 -0.849845
37.250000 -0.868819 -0.849847
37.300000 -0.861489 -0.849848
37.350000 -0.853946 -0.849850
37.400000 -0.846380 -0.849852
37.450000 -0.838977 -0.849854
37.500000 -0.831920 -0.849855
37.550000 -0.825378 -0.849857
37.600000 -0.819509 -0.849858
