time[ns] Raw_signal[mV]
-11.150000 -0.605080
-11.100000 -0.454341
-11.050000 -0.331009
-11.000000 -0.224806
-10.950000 -0.115178
-10.900000 -0.022679
-10.850000 0.038987
-10.800000 0.083524
-10.750000 0.128061
-10.700000 0.186300
-10.650000 0.234263
-10.600000 0.241115
-10.550000 0.244541
-10.500000 0.237688
-10.450000 0.203429
-10.400000 0.141764
-10.350000 0.090375
-10.300000 0.025284
-10.250000 -0.056938
-10.200000 -0.132307
-10.150000 -0.187122
-10.100000 -0.228232
-10.050000 -0.255640
-10.000000 -0.255639
-9.950000 -0.207677
-9.900000 -0.111752
-9.850000 0.008154
-9.800000 0.114357
-9.750000 0.210281
-9.700000 0.316484
-9.650000 0.415835
-9.600000 0.474075
-9.550000 0.508334
-9.500000 0.535741
-9.450000 0.522037
-9.400000 0.460371
-9.350000 0.391853
-9.300000 0.326762
-9.250000 0.247967
-9.200000 0.158893
-9.150000 0.097227
-9.100000 0.038987
-9.050000 -0.063790
-9.000000 -0.173418
-8.950000 -0.276195
-8.900000 -0.385823
-8.850000 -0.505729
-8.800000 -0.608506
-8.750000 -0.707857
-8.700000 -0.772949
-8.650000 -0.790078
-8.600000 -0.762672
-8.550000 -0.694154
-8.500000 -0.570821
-8.450000 -0.430360
-8.400000 -0.300176
-8.350000 -0.176844
-8.300000 -0.077493
-8.250000 -0.029531
-8.200000 -0.022679
-8.150000 -0.046660
-8.100000 -0.142585
-8.050000 -0.296750
-8.000000 -0.440637
-7.950000 -0.587951
-7.900000 -0.748967
-7.850000 -0.886003
-7.800000 -0.968225
-7.750000 -0.985354
-7.700000 -0.951096
-7.650000 -0.892855
-7.600000 -0.834615
-7.550000 -0.745542
-7.500000 -0.611932
-7.450000 -0.492026
-7.400000 -0.416656
-7.350000 -0.341287
-7.300000 -0.265918
-7.250000 -0.228232
-7.200000 -0.235085
-7.150000 -0.255639
-7.100000 -0.293324
-7.050000 -0.348139
-7.000000 -0.399527
-6.950000 -0.416656
-6.900000 -0.409804
-6.850000 -0.402953
-6.800000 -0.402953
-6.750000 -0.368694
-6.700000 -0.293324
-6.650000 -0.211103
-6.600000 -0.132308
-6.550000 -0.029531
-6.500000 0.080098
-6.450000 0.155467
-6.400000 0.203430
-6.350000 0.237688
-6.300000 0.258244
-6.250000 0.268521
-6.200000 0.261669
-6.150000 0.237689
-6.100000 0.210281
-6.050000 0.189726
-6.000000 0.162319
-5.950000 0.121208
-5.900000 0.104079
-5.850000 0.117783
-5.800000 0.097227
-5.750000 0.035561
-5.700000 -0.012401
-5.650000 -0.043234
-5.600000 -0.080919
-5.550000 -0.101474
-5.500000 -0.074068
-5.450000 -0.043235
-5.400000 -0.022679
-5.350000 0.032135
-5.300000 0.107505
-5.250000 0.145190
-5.200000 0.169171
-5.150000 0.206856
-5.100000 0.227411
-5.050000 0.179449
-5.000000 0.090376
-4.950000 -0.019253
-4.900000 -0.163140
-4.850000 -0.334435
-4.800000 -0.509155
-4.750000 -0.659895
-4.700000 -0.790078
-4.650000 -0.889429
-4.600000 -0.947669
-4.550000 -0.978502
-4.500000 -0.992206
-4.450000 -0.985354
-4.400000 -0.961373
-4.350000 -0.930539
-4.300000 -0.913411
-4.250000 -0.892855
-4.200000 -0.838041
-4.150000 -0.762671
-4.100000 -0.666747
-4.050000 -0.553692
-4.000000 -0.420083
-3.950000 -0.269344
-3.900000 -0.104900
-3.850000 0.073246
-3.800000 0.265096
-3.750000 0.426113
-3.700000 0.542592
-3.650000 0.621388
-3.600000 0.672777
-3.550000 0.669351
-3.500000 0.597407
-3.450000 0.487778
-3.400000 0.405557
-3.350000 0.350743
-3.300000 0.220559
-3.250000 -0.015827
-3.200000 -0.152862
-3.150000 -0.098049
-3.100000 -0.111752
-3.050000 -0.272769
-3.000000 -0.283046
-2.950000 -0.132308
-2.900000 -0.111753
-2.850000 -0.166566
-2.800000 -0.104900
-2.750000 -0.087771
-2.700000 -0.111752
-2.650000 0.045839
-2.600000 0.182874
-2.550000 0.035561
-2.500000 -0.070641
-2.450000 0.004729
-2.400000 -0.122030
-2.350000 -0.413230
-2.300000 -0.437211
-2.250000 -0.413231
-2.200000 -0.649617
-2.150000 -0.772949
-2.100000 -0.553692
-2.050000 -0.447489
-2.000000 -0.591377
-1.950000 -0.622210
-1.900000 -0.457767
-1.850000 -0.279621
-1.800000 -0.094622
-1.750000 -0.005549
-1.700000 -0.135733
-1.650000 -0.262492
-1.600000 -0.279621
-1.550000 -0.423508
-1.500000 -0.646191
-1.450000 -0.598228
-1.400000 -0.413231
-1.350000 -0.372119
-1.300000 -0.313879
-1.250000 -0.183696
-1.200000 -0.152863
-1.150000 -0.080919
-1.100000 0.176022
-1.050000 0.203430
-1.000000 -0.139159
-0.950000 -0.327583
-0.900000 -0.296750
-0.850000 -0.471470
-0.800000 -0.731838
-0.750000 -0.766097
-0.700000 -0.810634
-0.650000 -0.978502
-0.600000 -0.940817
-0.550000 -0.735264
-0.500000 -0.646191
-0.450000 -0.581099
-0.400000 -0.389249
-0.350000 -0.214529
-0.300000 -0.149437
-0.250000 -0.122030
-0.200000 -0.163141
-0.150000 -0.262491
-0.100000 -0.354990
-0.050000 -0.447489
0.000000 -0.516007
0.050000 -0.502304
0.100000 -0.516007
0.150000 -0.598229
0.200000 -0.526284
0.250000 -0.296750
0.300000 -0.228232
0.350000 -0.324158
0.400000 -0.248787
0.450000 -0.012402
0.500000 0.107504
0.550000 0.124634
0.600000 0.196578
0.650000 0.265095
0.700000 0.282226
0.750000 0.367873
0.800000 0.590555
0.850000 0.967404
0.900000 1.566934
0.950000 2.512479
1.000000 3.865706
1.050000 5.684855
1.100000 8.079549
1.150000 11.145726
1.200000 14.883366
1.250000 19.251376
1.300000 24.212068
1.350000 29.720903
1.400000 35.664820
1.450000 41.889660
1.500000 48.385151
1.550000 55.158130
1.600000 62.047600
1.650000 68.844560
1.700000 75.494210
1.750000 81.921180
1.800000 87.899360
1.850000 93.240330
1.900000 97.937220
1.950000 101.921540
2.000000 105.015110
2.050000 107.135740
2.100000 108.327950
2.150000 108.639700
2.200000 108.094980
2.250000 106.686940
2.300000 104.456690
2.350000 101.544690
2.400000 98.142780
2.450000 94.336610
2.500000 90.163880
2.550000 85.744480
2.600000 81.119530
2.650000 76.278740
2.700000 71.270100
2.750000 66.168940
2.800000 60.971870
2.850000 55.689140
2.900000 50.533180
2.950000 45.709530
3.000000 41.252440
3.050000 37.257860
3.100000 33.962150
3.150000 31.423570
3.200000 29.594150
3.250000 28.552668
3.300000 28.329988
3.350000 28.768501
3.400000 29.731176
3.450000 31.197462
3.500000 33.016607
3.550000 34.962510
3.600000 36.935820
3.650000 38.864600
3.700000 40.608380
3.750000 42.074660
3.800000 43.246310
3.850000 44.085650
3.900000 44.534450
3.950000 44.589260
4.000000 44.298060
4.050000 43.657420
4.100000 42.650210
4.150000 41.317540
4.200000 39.724500
4.250000 37.908780
4.300000 35.890930
4.350000 33.694940
4.400000 31.420140
4.450000 29.114520
4.500000 26.784910
4.550000 24.448460
4.600000 22.201070
4.650000 20.077016
4.700000 18.090001
4.750000 16.270851
4.800000 14.688098
4.850000 13.375981
4.900000 12.358490
4.950000 11.618495
5.000000 11.159429
5.050000 11.012116
5.100000 11.145719
5.150000 11.536276
5.200000 12.173493
5.250000 13.012836
5.300000 13.965231
5.350000 14.969012
5.400000 15.972799
5.450000 16.932054
5.500000 17.805656
5.550000 18.566202
5.600000 19.179436
5.650000 19.631657
5.700000 19.919431
5.750000 19.994796
5.800000 19.847483
5.850000 19.546009
5.900000 19.134894
5.950000 18.566205
6.000000 17.843333
6.050000 17.017696
6.100000 16.106415
6.150000 15.102629
6.200000 14.033744
6.250000 12.954595
6.300000 11.889139
6.350000 10.854522
6.400000 9.871292
6.450000 8.929171
6.500000 8.000755
6.550000 7.103172
6.600000 6.325496
6.650000 5.671151
6.700000 5.109305
6.750000 4.650235
6.800000 4.362460
6.850000 4.215147
6.900000 4.146630
6.950000 4.201444
7.000000 4.410423
7.050000 4.711901
7.100000 5.092175
7.150000 5.564944
7.200000 6.048000
7.250000 6.476232
7.300000 6.904474
7.350000 7.332710
7.400000 7.654741
7.450000 7.904829
7.500000 8.127518
7.550000 8.261120
7.600000 8.302232
7.650000 8.336497
7.700000 8.329643
7.750000 8.223435
7.800000 8.045296
7.850000 7.850016
7.900000 7.586223
7.950000 7.250486
8.000000 6.866786
8.050000 6.431698
8.100000 5.941795
8.150000 5.417635
8.200000 4.845511
8.250000 4.232276
8.300000 3.649876
8.350000 3.101733
8.400000 2.574145
8.450000 2.118502
8.500000 1.738228
8.550000 1.395639
8.600000 1.114716
8.650000 0.936570
8.700000 0.806386
8.750000 0.710461
8.800000 0.700184
8.850000 0.775553
8.900000 0.885182
8.950000 1.015366
9.000000 1.200364
9.050000 1.450454
9.100000 1.748507
9.150000 2.063689
9.200000 2.389148
9.250000 2.714607
9.300000 3.036641
9.350000 3.331267
9.400000 3.567654
9.450000 3.725244
9.500000 3.793762
9.550000 3.759504
9.600000 3.632746
9.650000 3.447747
9.700000 3.231916
9.750000 2.954420
9.800000 2.584423
9.850000 2.187020
9.900000 1.823876
9.950000 1.460731
10.000000 1.083883
10.050000 0.744720
10.100000 0.456946
10.150000 0.155468
10.200000 -0.132307
10.250000 -0.358416
10.300000 -0.570821
10.350000 -0.793504
10.400000 -0.988780
10.450000 -1.132668
10.500000 -1.235444
10.550000 -1.290259
10.600000 -1.290258
10.650000 -1.262851
10.700000 -1.177204
10.750000 -0.999057
10.800000 -0.766097
10.850000 -0.533137
10.900000 -0.265917
10.950000 0.038987
11.000000 0.316484
11.050000 0.563148
11.100000 0.792683
11.150000 0.991385
11.200000 1.148976
11.250000 1.282586
11.300000 1.381936
11.350000 1.426473
11.400000 1.447028
11.450000 1.447027
11.500000 1.395639
11.550000 1.313418
11.600000 1.190086
11.650000 1.022217
11.700000 0.826942
11.750000 0.621388
11.800000 0.374724
11.850000 0.104079
11.900000 -0.152863
11.950000 -0.430360
12.000000 -0.714708
12.050000 -0.978502
12.100000 -1.218315
12.150000 -1.447849
12.200000 -1.619144
12.250000 -1.715069
12.300000 -1.780160
12.350000 -1.793865
12.400000 -1.735624
12.450000 -1.636273
12.500000 -1.519793
12.550000 -1.355350
12.600000 -1.173778
12.650000 -1.019613
12.700000 -0.862022
12.750000 -0.701005
12.800000 -0.574248
12.850000 -0.512581
12.900000 -0.492026
12.950000 -0.485175
13.000000 -0.471471
13.050000 -0.457767
13.100000 -0.471471
13.150000 -0.495452
13.200000 -0.519433
13.250000 -0.574247
13.300000 -0.666746
13.350000 -0.748968
13.400000 -0.807207
13.450000 -0.886003
13.500000 -0.995631
13.550000 -1.129241
13.600000 -1.266277
13.650000 -1.393035
13.700000 -1.475256
13.750000 -1.557477
13.800000 -1.667106
13.850000 -1.745902
13.900000 -1.769883
13.950000 -1.787013
14.000000 -1.810993
14.050000 -1.824697
14.100000 -1.845252
14.150000 -1.862382
14.200000 -1.838400
14.250000 -1.793864
14.300000 -1.766457
14.350000 -1.721920
14.400000 -1.632847
14.450000 -1.540349
14.500000 -1.447849
14.550000 -1.348499
14.600000 -1.269703
14.650000 -1.228593
14.700000 -1.201185
14.750000 -1.204611
14.800000 -1.245722
14.850000 -1.300536
14.900000 -1.362202
14.950000 -1.458127
15.000000 -1.567755
15.050000 -1.653402
15.100000 -1.718495
15.150000 -1.766457
15.200000 -1.783587
15.250000 -1.804141
15.300000 -1.810994
15.350000 -1.776735
15.400000 -1.728772
15.450000 -1.732198
15.500000 -1.787012
15.550000 -1.869234
15.600000 -1.985714
15.650000 -2.122749
15.700000 -2.266637
15.750000 -2.451635
15.800000 -2.660614
15.850000 -2.787373
15.900000 -2.835335
15.950000 -2.879871
16.000000 -2.873019
16.050000 -2.770242
16.100000 -2.650336
16.150000 -2.561264
16.200000 -2.410525
16.250000 -2.204971
16.300000 -2.050806
16.350000 -1.951456
16.400000 -1.855530
16.450000 -1.763031
16.500000 -1.701365
16.550000 -1.646551
16.600000 -1.595163
16.650000 -1.564329
16.700000 -1.530071
16.750000 -1.488960
16.800000 -1.482108
16.850000 -1.478683
16.900000 -1.447849
16.950000 -1.430720
17.000000 -1.454701
17.050000 -1.475257
17.100000 -1.488960
17.150000 -1.516367
17.200000 -1.533496
17.250000 -1.550626
17.300000 -1.612292
17.350000 -1.704791
17.400000 -1.797290
17.450000 -1.930900
17.500000 -2.098768
17.550000 -2.263211
17.600000 -2.420802
17.650000 -2.568116
17.700000 -2.674318
17.750000 -2.763391
17.800000 -2.842186
17.850000 -2.866167
17.900000 -2.845613
17.950000 -2.831909
18.000000 -2.818205
18.050000 -2.766816
18.100000 -2.732558
18.150000 -2.708576
18.200000 -2.653762
18.250000 -2.592096
18.300000 -2.564689
18.350000 -2.533856
18.400000 -2.492746
18.450000 -2.444783
18.500000 -2.396821
18.550000 -2.331729
18.600000 -2.242656
18.650000 -2.139879
18.700000 -2.057658
18.750000 -1.992566
18.800000 -1.924048
18.850000 -1.882938
18.900000 -1.900067
18.950000 -1.927474
19.000000 -1.937751
19.050000 -1.999417
19.100000 -2.115898
19.150000 -2.222100
19.200000 -2.318026
19.250000 -2.441358
19.300000 -2.581818
19.350000 -2.718855
19.400000 -2.842186
19.450000 -2.920982
19.500000 -2.958666
19.550000 -2.982648
19.600000 -2.979222
19.650000 -2.914130
19.700000 -2.838760
19.750000 -2.811354
19.800000 -2.783946
19.850000 -2.729132
19.900000 -2.708577
19.950000 -2.732558
20.000000 -2.742836
20.050000 -2.735984
20.100000 -2.756539
20.150000 -2.804501
20.200000 -2.821631
20.250000 -2.797650
20.300000 -2.746262
20.350000 -2.650337
20.400000 -2.499598
20.450000 -2.324877
20.500000 -2.150157
20.550000 -1.985714
20.600000 -1.865807
20.650000 -1.800716
20.700000 -1.810994
20.750000 -1.913771
20.800000 -2.088490
20.850000 -2.294044
20.900000 -2.509876
20.950000 -2.735984
21.000000 -2.968944
21.050000 -3.167646
21.100000 -3.280700
21.150000 -3.314959
21.200000 -3.294404
21.250000 -3.208756
21.300000 -3.068295
21.350000 -2.927833
21.400000 -2.801076
21.450000 -2.664040
21.500000 -2.544134
21.550000 -2.499598
21.600000 -2.499597
21.650000 -2.489320
21.700000 -2.496172
21.750000 -2.550985
21.800000 -2.585245
21.850000 -2.581819
21.900000 -2.574967
21.950000 -2.578393
22.000000 -2.568115
22.050000 -2.544134
22.100000 -2.516727
22.150000 -2.516727
22.200000 -2.530431
22.250000 -2.550986
22.300000 -2.598948
22.350000 -2.684596
22.400000 -2.790798
22.450000 -2.893575
22.500000 -2.986074
22.550000 -3.058018
22.600000 -3.085425
22.650000 -3.081999
22.700000 -3.058018
22.750000 -2.996352
22.800000 -2.893575
22.850000 -2.787372
22.900000 -2.670892
22.950000 -2.533857
23.000000 -2.396821
23.050000 -2.287193
23.100000 -2.208397
23.150000 -2.170712
23.200000 -2.153583
23.250000 -2.146731
23.300000 -2.177564
23.350000 -2.280340
23.400000 -2.379691
23.450000 -2.458487
23.500000 -2.564690
23.550000 -2.674318
23.600000 -2.739410
23.650000 -2.797650
23.700000 -2.859316
23.750000 -2.873019
23.800000 -2.855890
23.850000 -2.862742
23.900000 -2.842187
23.950000 -2.780521
24.000000 -2.729132
24.050000 -2.660614
24.100000 -2.523579
24.150000 -2.410525
24.200000 -2.345432
24.250000 -2.252933
24.300000 -2.146731
24.350000 -2.078213
24.400000 -2.013121
24.450000 -1.924048
24.500000 -1.855530
24.550000 -1.797290
24.600000 -1.701365
24.650000 -1.619143
24.700000 -1.574607
24.750000 -1.519793
24.800000 -1.485534
24.850000 -1.512941
24.900000 -1.598589
24.950000 -1.718495
25.000000 -1.889789
25.050000 -2.078213
25.100000 -2.252933
25.150000 -2.437932
25.200000 -2.626355
25.250000 -2.756540
25.300000 -2.842186
25.350000 -2.903853
25.400000 -2.897001
25.450000 -2.814779
25.500000 -2.722280
25.550000 -2.622929
25.600000 -2.496171
25.650000 -2.386543
25.700000 -2.342006
25.750000 -2.342007
25.800000 -2.365987
25.850000 -2.407098
25.900000 -2.441357
25.950000 -2.482468
26.000000 -2.527004
26.050000 -2.547560
26.100000 -2.516726
26.150000 -2.448209
26.200000 -2.362562
26.250000 -2.246081
26.300000 -2.122749
26.350000 -2.023399
26.400000 -1.930900
26.450000 -1.858956
26.500000 -1.821272
26.550000 -1.821271
26.600000 -1.852104
26.650000 -1.937751
26.700000 -2.040528
26.750000 -2.122750
26.800000 -2.228952
26.850000 -2.365987
26.900000 -2.455061
26.950000 -2.479042
27.000000 -2.468765
27.050000 -2.407099
27.100000 -2.304322
27.150000 -2.232378
27.200000 -2.174138
27.250000 -2.109046
27.300000 -2.085065
27.350000 -2.133028
27.400000 -2.208396
27.450000 -2.307747
27.500000 -2.441357
27.550000 -2.581819
27.600000 -2.684595
27.650000 -2.735983
27.700000 -2.708576
27.750000 -2.609226
27.800000 -2.472190
27.850000 -2.294044
27.900000 -2.081639
27.950000 -1.896641
28.000000 -1.759605
28.050000 -1.653403
28.100000 -1.598588
28.150000 -1.636274
28.200000 -1.766457
28.250000 -1.972010
28.300000 -2.204970
28.350000 -2.417377
28.400000 -2.592096
28.450000 -2.739410
28.500000 -2.845612
28.550000 -2.893575
28.600000 -2.873019
28.650000 -2.801076
28.700000 -2.715428
28.750000 -2.646911
28.800000 -2.581819
28.850000 -2.527004
28.900000 -2.547560
28.950000 -2.616078
29.000000 -2.684596
29.050000 -2.763391
29.100000 -2.883297
29.150000 -2.999778
29.200000 -3.092277
29.250000 -3.167646
29.300000 -3.222460
29.350000 -3.236164
29.400000 -3.177924
29.450000 -3.058018
29.500000 -2.910704
29.550000 -2.749688
29.600000 -2.574967
29.650000 -2.389969
29.700000 -2.225526
29.750000 -2.091917
29.800000 -1.995992
29.850000 -1.941177
29.900000 -1.920622
29.950000 -1.954881
30.000000 -2.064509
30.050000 -2.201545
30.100000 -2.307748
30.150000 -2.396821
30.200000 -2.468765
30.250000 -2.489320
30.300000 -2.458487
30.350000 -2.407098
30.400000 -2.342007
30.450000 -2.259786
30.500000 -2.187841
30.550000 -2.153583
30.600000 -2.153582
30.650000 -2.194693
30.700000 -2.259785
30.750000 -2.369414
30.800000 -2.530431
30.850000 -2.688022
30.900000 -2.801076
30.950000 -2.900427
31.000000 -2.975796
31.050000 -2.989500
31.100000 -2.938112
31.150000 -2.862742
31.200000 -2.770243
31.250000 -2.653762
31.300000 -2.533857
31.350000 -2.413950
31.400000 -2.304322
31.450000 -2.235804
31.500000 -2.211823
31.550000 -2.204971
31.600000 -2.242656
31.650000 -2.321451
31.700000 -2.431080
31.750000 -2.544134
31.800000 -2.643485
31.850000 -2.712002
31.900000 -2.739410
31.950000 -2.742835
32.000000 -2.694873
32.050000 -2.588671
32.100000 -2.448209
32.150000 -2.304322
32.200000 -2.150157
32.250000 -1.975436
32.300000 -1.810994
32.350000 -1.718495
32.400000 -1.715069
32.450000 -1.766457
32.500000 -1.886363
32.550000 -2.081639
32.600000 -2.314600
32.650000 -2.544134
32.700000 -2.790798
32.750000 -3.020333
32.800000 -3.198479
32.850000 -3.297830
32.900000 -3.332089
32.950000 -3.301256
33.000000 -3.212183
33.050000 -3.081999
33.100000 -2.914130
33.150000 -2.732558
33.200000 -2.547560
33.250000 -2.355710
33.300000 -2.187842
33.350000 -2.078213
33.400000 -2.023399
33.450000 -1.999418
33.500000 -1.995992
33.550000 -2.030251
33.600000 -2.109046
33.650000 -2.201545
33.700000 -2.280341
33.750000 -2.386543
33.800000 -2.544134
33.850000 -2.681170
33.900000 -2.804502
33.950000 -2.958667
34.000000 -3.109406
34.050000 -3.212183
34.100000 -3.297830
34.150000 -3.386903
34.200000 -3.434865
34.250000 -3.414310
34.300000 -3.359496
34.350000 -3.273848
34.400000 -3.153943
34.450000 -3.016907
34.500000 -2.883297
34.550000 -2.759965
34.600000 -2.629782
34.650000 -2.496171
34.700000 -2.389969
34.750000 -2.324877
34.800000 -2.283766
34.850000 -2.270063
34.900000 -2.304322
34.950000 -2.359136
35.000000 -2.386543
35.050000 -2.407099
35.100000 -2.451635
35.150000 -2.496172
35.200000 -2.533856
35.250000 -2.592096
35.300000 -2.657188
35.350000 -2.725706
35.400000 -2.835335
35.450000 -2.965518
35.500000 -3.058018
35.550000 -3.143665
35.600000 -3.256719
35.650000 -3.349218
35.700000 -3.407458
35.750000 -3.496532
35.800000 -3.599308
35.850000 -3.660974
35.900000 -3.691807
35.950000 -3.729492
36.000000 -3.736344
36.050000 -3.702085
36.100000 -3.643845
36.150000 -3.565049
36.200000 -3.472551
36.250000 -3.376626
36.300000 -3.249867
36.350000 -3.088851
36.400000 -2.903853
36.450000 -2.729132
36.500000 -2.571541
36.550000 -2.455061
36.600000 -2.383118
36.650000 -2.335155
36.700000 -2.318026
36.750000 -2.348858
36.800000 -2.407099
36.850000 -2.485894
36.900000 -2.571541
36.950000 -2.664040
37.000000 -2.735984
37.050000 -2.777095
37.100000 -2.777094
37.150000 -2.749688
37.200000 -2.712002
37.250000 -2.653762
37.300000 -2.581819
37.350000 -2.537282
37.400000 -2.533856
37.450000 -2.523579
37.500000 -2.527004
37.550000 -2.595522
37.600000 -2.667466
37.650000 -2.718855
37.700000 -2.801076
37.750000 -2.920982
37.800000 -3.023758
37.850000 -3.109406
37.900000 -3.208756
37.950000 -3.290978
38.000000 -3.356070
38.050000 -3.414310
38.100000 -3.434865
38.150000 -3.397181
38.200000 -3.314959
38.250000 -3.215609
38.300000 -3.078573
38.350000 -2.924407
38.400000 -2.783946
38.450000 -2.640059
38.500000 -2.499597
38.550000 -2.420802
38.600000 -2.403673
38.650000 -2.417377
38.700000 -2.444783
38.750000 -2.537283
38.800000 -2.694873
38.850000 -2.852465
38.900000 -2.986074
38.950000 -3.140238
39.000000 -3.318386
39.050000 -3.424587
39.100000 -3.438291
39.150000 -3.404033
39.200000 -3.332088
39.250000 -3.195053
39.300000 -3.013481
39.350000 -2.825057
39.400000 -2.602374
39.450000 -2.359136
39.500000 -2.157009
39.550000 -2.026825
39.600000 -1.937751
