fit_time[ns] Functional_fit[mV] Thermal_fit[mV]
3.550000 13.624766 13.063989
3.600000 13.491497 12.737956
3.650000 13.344459 12.419626
3.700000 13.179287 12.108808
3.750000 12.992325 11.805319
3.800000 12.780708 11.508978
3.850000 12.542422 11.219612
3.900000 12.276347 10.937048
3.950000 11.982265 10.661121
4.000000 11.660854 10.391669
4.050000 11.313658 10.128534
4.100000 10.943033 9.871562
4.150000 10.552073 9.620604
4.200000 10.144520 9.375514
4.250000 9.724654 9.136150
4.300000 9.297176 8.902372
4.350000 8.867078 8.674046
4.400000 8.439509 8.451041
4.450000 8.019635 8.233228
4.500000 7.612502 8.020481
4.550000 7.222910 7.812680
4.600000 6.855282 7.609705
4.650000 6.513555 7.411440
4.700000 6.201079 7.217772
4.750000 5.920535 7.028592
4.800000 5.673873 6.843792
4.850000 5.462260 6.663268
4.900000 5.286063 6.486916
4.950000 5.144842 6.314638
5.000000 5.037367 6.146337
5.050000 4.961658 5.981918
5.100000 4.915038 5.821289
5.150000 4.894210 5.664360
5.200000 4.895347 5.511043
5.250000 4.914190 5.361253
5.300000 4.946162 5.214905
5.350000 4.986489 5.071919
5.400000 5.030320 4.932215
5.450000 5.072852 4.795716
5.500000 5.109451 4.662346
5.550000 5.135766 4.532031
5.600000 5.147839 4.404700
5.650000 5.142197 4.280282
5.700000 5.115938 4.158708
5.750000 5.066796 4.039913
5.800000 4.993188 3.923831
5.850000 4.894253 3.810397
5.900000 4.769855 3.699551
5.950000 4.620587 3.591232
6.000000 4.447737 3.485381
6.050000 4.253254 3.381939
6.100000 4.039683 3.280851
6.150000 3.810096 3.182062
6.200000 3.568002 3.085518
6.250000 3.317253 2.991168
6.300000 3.061942 2.898959
6.350000 2.806287 2.808842
6.400000 2.554526 2.720769
6.450000 2.310805 2.634693
6.500000 2.079069 2.550566
6.550000 1.862963 2.468343
6.600000 1.665740 2.387982
6.650000 1.490181 2.309437
6.700000 1.338528 2.232669
6.750000 1.212427 2.157634
6.800000 1.112895 2.084295
6.850000 1.040300 2.012610
6.900000 0.994354 1.942542
6.950000 0.974129 1.874055
7.000000 0.978087 1.807111
7.050000 1.004122 1.741674
7.100000 1.049625 1.677711
7.150000 1.111551 1.615188
7.200000 1.186503 1.554070
7.250000 1.270820 1.494327
7.300000 1.360678 1.435926
7.350000 1.452186 1.378837
7.400000 1.541486 1.323030
7.450000 1.624852 1.268475
7.500000 1.698783 1.215144
7.550000 1.760091 1.163009
7.600000 1.805978 1.112042
7.650000 1.834105 1.062216
7.700000 1.842642 1.013506
7.750000 1.830315 0.965887
7.800000 1.796426 0.919333
7.850000 1.740871 0.873820
7.900000 1.664127 0.829324
7.950000 1.567242 0.785822
8.000000 1.451795 0.743292
8.050000 1.319850 0.701711
8.100000 1.173900 0.661059
8.150000 1.016794 0.621313
8.200000 0.851663 0.582453
8.250000 0.681831 0.544460
8.300000 0.510732 0.507313
8.350000 0.341816 0.470993
8.400000 0.178464 0.435482
8.450000 0.023894 0.400761
8.500000 -0.118913 0.366813
8.550000 -0.247290 0.333619
8.600000 -0.358954 0.301163
8.650000 -0.452055 0.269429
8.700000 -0.525222 0.238399
8.750000 -0.577594 0.208059
8.800000 -0.608837 0.178391
8.850000 -0.619145 0.149382
8.900000 -0.609233 0.121017
8.950000 -0.580313 0.093280
9.000000 -0.534054 0.066159
9.050000 -0.472539 0.039638
9.100000 -0.398205 0.013704
9.150000 -0.313778 -0.011655
9.200000 -0.222198 -0.036453
9.250000 -0.126545 -0.060703
9.300000 -0.029953 -0.084416
9.350000 0.064464 -0.107604
9.400000 0.153697 -0.130281
9.450000 0.234917 -0.152456
9.500000 0.305543 -0.174141
9.550000 0.363307 -0.195347
9.600000 0.406312 -0.216086
9.650000 0.433069 -0.236366
9.700000 0.442539 -0.256199
9.750000 0.434149 -0.275595
9.800000 0.407802 -0.294564
9.850000 0.363878 -0.313114
9.900000 0.303214 -0.331255
9.950000 0.227080 -0.348997
10.000000 0.137141 -0.366348
10.050000 0.035410 -0.383318
10.100000 -0.075810 -0.399913
10.150000 -0.193985 -0.416144
10.200000 -0.316421 -0.432018
10.250000 -0.440334 -0.447543
10.300000 -0.562922 -0.462726
10.350000 -0.681440 -0.477576
10.400000 -0.793268 -0.492100
10.450000 -0.895977 -0.506305
10.500000 -0.987392 -0.520198
10.550000 -1.065643 -0.533786
10.600000 -1.129211 -0.547075
10.650000 -1.176964 -0.560074
10.700000 -1.208182 -0.572787
10.750000 -1.222571 -0.585221
10.800000 -1.220263 -0.597383
10.850000 -1.201816 -0.609279
10.900000 -1.168186 -0.620914
10.950000 -1.120706 -0.632294
11.000000 -1.061042 -0.643425
11.050000 -0.991150 -0.654312
11.100000 -0.913223 -0.664961
11.150000 -0.829629 -0.675377
11.200000 -0.742851 -0.685565
11.250000 -0.655422 -0.695531
11.300000 -0.569857 -0.705278
11.350000 -0.488592 -0.714813
11.400000 -0.413920 -0.724139
11.450000 -0.347932 -0.733262
11.500000 -0.292472 -0.742185
11.550000 -0.249085 -0.750913
11.600000 -0.218983 -0.759451
11.650000 -0.203021 -0.767803
11.700000 -0.201673 -0.775972
11.750000 -0.215029 -0.783964
11.800000 -0.242794 -0.791781
11.850000 -0.284302 -0.799427
11.900000 -0.338534 -0.806907
11.950000 -0.404153 -0.814224
12.000000 -0.479537 -0.821382
12.050000 -0.562826 -0.828383
12.100000 -0.651975 -0.835232
12.150000 -0.744803 -0.841932
12.200000 -0.839056 -0.848487
12.250000 -0.932464 -0.854898
12.300000 -1.022798 -0.861170
12.350000 -1.107929 -0.867306
12.400000 -1.185883 -0.873308
12.450000 -1.254887 -0.879180
12.500000 -1.313414 -0.884924
12.550000 -1.360219 -0.890543
12.600000 -1.394371 -0.896041
12.650000 -1.415271 -0.901418
12.700000 -1.422663 -0.906679
12.750000 -1.416638 -0.911826
12.800000 -1.397631 -0.916861
12.850000 -1.366402 -0.921787
12.900000 -1.324014 -0.926606
12.950000 -1.271803 -0.931320
13.000000 -1.211341 -0.935932
13.050000 -1.144393 -0.940444
13.100000 -1.072870 -0.944858
13.150000 -0.998775 -0.949177
13.200000 -0.924156 -0.953402
13.250000 -0.851048 -0.957535
13.300000 -0.781423 -0.961579
13.350000 -0.717142 -0.965535
13.400000 -0.659904 -0.969406
13.450000 -0.611205 -0.973193
13.500000 -0.572306 -0.976898
13.550000 -0.544198 -0.980522
13.600000 -0.527583 -0.984069
13.650000 -0.522856 -0.987538
13.700000 -0.530100 -0.990932
13.750000 -0.549089 -0.994254
13.800000 -0.579294 -0.997503
13.850000 -0.619900 -1.000682
13.900000 -0.669833 -1.003792
13.950000 -0.727789 -1.006835
14.000000 -0.792268 -1.009812
14.050000 -0.861617 -1.012725
14.100000 -0.934077 -1.015576
14.150000 -1.007821 -1.018364
14.200000 -1.081011 -1.021092
14.250000 -1.151841 -1.023762
14.300000 -1.218582 -1.026374
14.350000 -1.279629 -1.028929
14.400000 -1.333538 -1.031430
14.450000 -1.379065 -1.033876
14.500000 -1.415191 -1.036270
14.550000 -1.441149 -1.038612
14.600000 -1.456444 -1.040903
14.650000 -1.460855 -1.043145
14.700000 -1.454445 -1.045339
14.750000 -1.437552 -1.047486
14.800000 -1.410780 -1.049586
14.850000 -1.374979 -1.051641
14.900000 -1.331221 -1.053652
14.950000 -1.280769 -1.055619
15.000000 -1.225047 -1.057545
15.050000 -1.165594 -1.059428
15.100000 -1.104029 -1.061271
15.150000 -1.042009 -1.063075
15.200000 -0.981180 -1.064840
15.250000 -0.923140 -1.066566
15.300000 -0.869400 -1.068256
15.350000 -0.821338 -1.069909
15.400000 -0.780173 -1.071527
15.450000 -0.746933 -1.073110
15.500000 -0.722429 -1.074659
15.550000 -0.707236 -1.076174
15.600000 -0.701686 -1.077657
15.650000 -0.705855 -1.079109
15.700000 -0.719570 -1.080529
15.750000 -0.742410 -1.081918
15.800000 -0.773726 -1.083278
15.850000 -0.812657 -1.084608
15.900000 -0.858152 -1.085910
15.950000 -0.909004 -1.087184
16.000000 -0.963879 -1.088431
16.050000 -1.021355 -1.089651
16.100000 -1.079956 -1.090844
16.150000 -1.138192 -1.092013
16.200000 -1.194599 -1.093156
16.250000 -1.247775 -1.094274
16.300000 -1.296416 -1.095369
16.350000 -1.339346 -1.096440
16.400000 -1.375552 -1.097488
16.450000 -1.404199 -1.098513
16.500000 -1.424660 -1.099517
16.550000 -1.436523 -1.100499
16.600000 -1.439599 -1.101460
16.650000 -1.433930 -1.102401
16.700000 -1.419781 -1.103321
16.750000 -1.397630 -1.104222
16.800000 -1.368158 -1.105103
16.850000 -1.332225 -1.105966
16.900000 -1.290847 -1.106810
16.950000 -1.245170 -1.107636
17.000000 -1.196438 -1.108444
17.050000 -1.145957 -1.109235
17.100000 -1.095068 -1.110009
17.150000 -1.045104 -1.110767
17.200000 -0.997361 -1.111508
17.250000 -0.953062 -1.112234
17.300000 -0.913329 -1.112944
17.350000 -0.879154 -1.113638
17.400000 -0.851374 -1.114318
17.450000 -0.830654 -1.114984
17.500000 -0.817467 -1.115635
17.550000 -0.812089 -1.116272
17.600000 -0.814590 -1.116896
17.650000 -0.824838 -1.117506
17.700000 -0.842500 -1.118103
17.750000 -0.867058 -1.118688
17.800000 -0.897820 -1.119260
17.850000 -0.933944 -1.119820
17.900000 -0.974455 -1.120368
17.950000 -1.018279 -1.120904
18.000000 -1.064266 -1.121429
18.050000 -1.111222 -1.121942
18.100000 -1.157943 -1.122445
18.150000 -1.203241 -1.122936
18.200000 -1.245978 -1.123418
18.250000 -1.285096 -1.123889
18.300000 -1.319638 -1.124350
18.350000 -1.348778 -1.124801
18.400000 -1.371834 -1.125243
18.450000 -1.388291 -1.125675
18.500000 -1.397808 -1.126098
18.550000 -1.400225 -1.126512
18.600000 -1.395568 -1.126917
18.650000 -1.384043 -1.127313
18.700000 -1.366032 -1.127701
18.750000 -1.342077 -1.128081
18.800000 -1.312869 -1.128453
18.850000 -1.279227 -1.128817
18.900000 -1.242073 -1.129173
18.950000 -1.202410 -1.129521
19.000000 -1.161295 -1.129862
19.050000 -1.119811 -1.130196
19.100000 -1.079038 -1.130522
19.150000 -1.040027 -1.130842
19.200000 -1.003769 -1.131155
19.250000 -0.971178 -1.131461
19.300000 -0.943060 -1.131761
19.350000 -0.920098 -1.132054
19.400000 -0.902835 -1.132341
19.450000 -0.891661 -1.132622
19.500000 -0.886806 -1.132897
19.550000 -0.888334 -1.133166
19.600000 -0.896143 -1.133430
19.650000 -0.909972 -1.133688
19.700000 -0.929406 -1.133940
19.750000 -0.953891 -1.134187
19.800000 -0.982750 -1.134429
19.850000 -1.015198 -1.134665
19.900000 -1.050369 -1.134897
19.950000 -1.087333 -1.135124
20.000000 -1.125126 -1.135345
20.050000 -1.162772 -1.135563
20.100000 -1.199310 -1.135775
20.150000 -1.233817 -1.135983
20.200000 -1.265431 -1.136187
20.250000 -1.293377 -1.136386
20.300000 -1.316979 -1.136581
20.350000 -1.335682 -1.136772
20.400000 -1.349062 -1.136959
20.450000 -1.356838 -1.137141
20.500000 -1.358874 -1.137320
20.550000 -1.355185 -1.137496
20.600000 -1.345931 -1.137667
20.650000 -1.331416 -1.137835
20.700000 -1.312074 -1.137999
20.750000 -1.288459 -1.138160
20.800000 -1.261229 -1.138317
20.850000 -1.231128 -1.138471
20.900000 -1.198965 -1.138622
20.950000 -1.165595 -1.138770
21.000000 -1.131892 -1.138914
21.050000 -1.098732 -1.139055
21.100000 -1.066966 -1.139194
21.150000 -1.037400 -1.139329
21.200000 -1.010775 -1.139462
21.250000 -0.987746 -1.139591
21.300000 -0.968873 -1.139719
21.350000 -0.954598 -1.139843
21.400000 -0.945243 -1.139965
21.450000 -0.940999 -1.140084
21.500000 -0.941923 -1.140200
21.550000 -0.947938 -1.140314
21.600000 -0.958838 -1.140426
21.650000 -0.974292 -1.140535
21.700000 -0.993857 -1.140642
21.750000 -1.016987 -1.140747
21.800000 -1.043052 -1.140850
21.850000 -1.071351 -1.140950
21.900000 -1.101135 -1.141048
21.950000 -1.131624 -1.141144
22.000000 -1.162029 -1.141238
22.050000 -1.191569 -1.141331
22.100000 -1.219498 -1.141421
22.150000 -1.245114 -1.141509
22.200000 -1.267788 -1.141595
22.250000 -1.286968 -1.141680
22.300000 -1.302202 -1.141763
22.350000 -1.313142 -1.141844
22.400000 -1.319555 -1.141923
22.450000 -1.321326 -1.142001
22.500000 -1.318463 -1.142077
22.550000 -1.311091 -1.142151
22.600000 -1.299449 -1.142224
22.650000 -1.283886 -1.142295
22.700000 -1.264847 -1.142365
22.750000 -1.242860 -1.142433
22.800000 -1.218525 -1.142500
22.850000 -1.192495 -1.142566
22.900000 -1.165461 -1.142630
22.950000 -1.138129 -1.142692
23.000000 -1.111209 -1.142754
23.050000 -1.085391 -1.142814
23.100000 -1.061328 -1.142873
23.150000 -1.039622 -1.142930
23.200000 -1.020809 -1.142987
23.250000 -1.005342 -1.143042
23.300000 -0.993585 -1.143096
23.350000 -0.985801 -1.143149
23.400000 -0.982151 -1.143200
23.450000 -0.982683 -1.143251
23.500000 -0.987342 -1.143301
23.550000 -0.995964 -1.143349
23.600000 -1.008285 -1.143397
23.650000 -1.023949 -1.143443
23.700000 -1.042520 -1.143489
23.750000 -1.063488 -1.143533
23.800000 -1.086289 -1.143577
23.850000 -1.110319 -1.143620
23.900000 -1.134946 -1.143661
23.950000 -1.159531 -1.143702
24.000000 -1.183443 -1.143742
24.050000 -1.206076 -1.143782
24.100000 -1.226861 -1.143820
24.150000 -1.245284 -1.143857
24.200000 -1.260898 -1.143894
24.250000 -1.273332 -1.143930
24.300000 -1.282302 -1.143966
24.350000 -1.287615 -1.144000
24.400000 -1.289174 -1.144034
24.450000 -1.286980 -1.144067
24.500000 -1.281133 -1.144099
24.550000 -1.271821 -1.144131
24.600000 -1.259324 -1.144162
24.650000 -1.243997 -1.144192
24.700000 -1.226267 -1.144222
24.750000 -1.206616 -1.144251
24.800000 -1.185572 -1.144280
24.850000 -1.163691 -1.144307
24.900000 -1.141548 -1.144335
24.950000 -1.119715 -1.144361
25.000000 -1.098751 -1.144388
25.050000 -1.079188 -1.144413
25.100000 -1.061513 -1.144438
25.150000 -1.046164 -1.144463
25.200000 -1.033509 -1.144487
25.250000 -1.023846 -1.144510
25.300000 -1.017392 -1.144533
25.350000 -1.014280 -1.144556
25.400000 -1.014554 -1.144578
25.450000 -1.018171 -1.144600
25.500000 -1.025002 -1.144621
25.550000 -1.034837 -1.144641
25.600000 -1.047392 -1.144662
25.650000 -1.062315 -1.144682
25.700000 -1.079196 -1.144701
25.750000 -1.097581 -1.144720
25.800000 -1.116980 -1.144739
25.850000 -1.136885 -1.144757
25.900000 -1.156777 -1.144775
25.950000 -1.176146 -1.144792
26.000000 -1.194498 -1.144809
26.050000 -1.211374 -1.144826
26.100000 -1.226356 -1.144842
26.150000 -1.239077 -1.144858
26.200000 -1.249237 -1.144874
26.250000 -1.256601 -1.144889
26.300000 -1.261011 -1.144904
26.350000 -1.262385 -1.144919
26.400000 -1.260721 -1.144934
26.450000 -1.256096 -1.144948
26.500000 -1.248659 -1.144962
26.550000 -1.238634 -1.144975
26.600000 -1.226307 -1.144988
26.650000 -1.212020 -1.145001
26.700000 -1.196162 -1.145014
26.750000 -1.179158 -1.145026
26.800000 -1.161460 -1.145039
26.850000 -1.143529 -1.145050
26.900000 -1.125831 -1.145062
26.950000 -1.108819 -1.145074
27.000000 -1.092922 -1.145085
27.050000 -1.078540 -1.145096
27.100000 -1.066025 -1.145106
27.150000 -1.055681 -1.145117
27.200000 -1.047749 -1.145127
27.250000 -1.042409 -1.145137
27.300000 -1.039769 -1.145147
27.350000 -1.039871 -1.145157
27.400000 -1.042680 -1.145166
27.450000 -1.048097 -1.145175
27.500000 -1.055953 -1.145184
27.550000 -1.066021 -1.145193
27.600000 -1.078017 -1.145202
27.650000 -1.091614 -1.145210
27.700000 -1.106442 -1.145219
27.750000 -1.122109 -1.145227
27.800000 -1.138202 -1.145235
27.850000 -1.154302 -1.145243
27.900000 -1.169995 -1.145250
27.950000 -1.184882 -1.145258
28.000000 -1.198589 -1.145265
28.050000 -1.210775 -1.145272
28.100000 -1.221145 -1.145279
28.150000 -1.229450 -1.145286
28.200000 -1.235500 -1.145293
28.250000 -1.239163 -1.145299
28.300000 -1.240370 -1.145306
28.350000 -1.239119 -1.145312
28.400000 -1.235466 -1.145318
28.450000 -1.229533 -1.145324
28.500000 -1.221497 -1.145330
28.550000 -1.211587 -1.145336
28.600000 -1.200079 -1.145342
28.650000 -1.187287 -1.145347
28.700000 -1.173553 -1.145353
28.750000 -1.159241 -1.145358
28.800000 -1.144726 -1.145363
28.850000 -1.130384 -1.145368
28.900000 -1.116583 -1.145373
28.950000 -1.103671 -1.145378
29.000000 -1.091971 -1.145383
29.050000 -1.081773 -1.145388
29.100000 -1.073321 -1.145392
29.150000 -1.066815 -1.145397
29.200000 -1.062401 -1.145401
29.250000 -1.060171 -1.145405
29.300000 -1.060159 -1.145410
29.350000 -1.062340 -1.145414
29.400000 -1.066636 -1.145418
29.450000 -1.072913 -1.145422
29.500000 -1.080988 -1.145426
29.550000 -1.090634 -1.145429
29.600000 -1.101586 -1.145433
29.650000 -1.113549 -1.145437
29.700000 -1.126203 -1.145440
29.750000 -1.139216 -1.145444
29.800000 -1.152249 -1.145447
29.850000 -1.164966 -1.145450
29.900000 -1.177043 -1.145454
29.950000 -1.188178 -1.145457
30.000000 -1.198093 -1.145460
30.050000 -1.206546 -1.145463
30.100000 -1.213337 -1.145466
30.150000 -1.218307 -1.145469
30.200000 -1.221350 -1.145472
30.250000 -1.222407 -1.145475
30.300000 -1.221472 -1.145477
30.350000 -1.218592 -1.145480
30.400000 -1.213862 -1.145483
30.450000 -1.207423 -1.145485
30.500000 -1.199459 -1.145488
30.550000 -1.190192 -1.145490
30.600000 -1.179875 -1.145493
30.650000 -1.168784 -1.145495
30.700000 -1.157213 -1.145498
30.750000 -1.145466 -1.145500
30.800000 -1.133846 -1.145502
30.850000 -1.122651 -1.145504
30.900000 -1.112165 -1.145506
30.950000 -1.102650 -1.145509
31.000000 -1.094341 -1.145511
31.050000 -1.087438 -1.145513
31.100000 -1.082104 -1.145515
31.150000 -1.078460 -1.145516
31.200000 -1.076580 -1.145518
31.250000 -1.076495 -1.145520
31.300000 -1.078187 -1.145522
31.350000 -1.081594 -1.145524
31.400000 -1.086609 -1.145526
31.450000 -1.093086 -1.145527
31.500000 -1.100843 -1.145529
31.550000 -1.109666 -1.145531
31.600000 -1.119317 -1.145532
31.650000 -1.129538 -1.145534
31.700000 -1.140061 -1.145535
31.750000 -1.150612 -1.145537
31.800000 -1.160918 -1.145538
31.850000 -1.170717 -1.145540
31.900000 -1.179762 -1.145541
31.950000 -1.187829 -1.145542
32.000000 -1.194721 -1.145544
32.050000 -1.200274 -1.145545
32.100000 -1.204357 -1.145546
32.150000 -1.206884 -1.145548
32.200000 -1.207804 -1.145549
32.250000 -1.207112 -1.145550
32.300000 -1.204844 -1.145551
32.350000 -1.201074 -1.145552
32.400000 -1.195916 -1.145554
32.450000 -1.189518 -1.145555
32.500000 -1.182057 -1.145556
32.550000 -1.173737 -1.145557
32.600000 -1.164782 -1.145558
32.650000 -1.155428 -1.145559
32.700000 -1.145922 -1.145560
32.750000 -1.136508 -1.145561
32.800000 -1.127429 -1.145562
32.850000 -1.118915 -1.145563
32.900000 -1.111178 -1.145564
32.950000 -1.104409 -1.145565
33.000000 -1.098773 -1.145565
33.050000 -1.094401 -1.145566
33.100000 -1.091394 -1.145567
33.150000 -1.089813 -1.145568
33.200000 -1.089683 -1.145569
33.250000 -1.090994 -1.145570
33.300000 -1.093695 -1.145570
33.350000 -1.097701 -1.145571
33.400000 -1.102896 -1.145572
33.450000 -1.109134 -1.145573
33.500000 -1.116242 -1.145573
33.550000 -1.124028 -1.145574
33.600000 -1.132285 -1.145575
33.650000 -1.140795 -1.145575
33.700000 -1.149335 -1.145576
33.750000 -1.157688 -1.145577
33.800000 -1.165638 -1.145577
33.850000 -1.172986 -1.145578
33.900000 -1.179550 -1.145578
33.950000 -1.185169 -1.145579
34.000000 -1.189708 -1.145580
34.050000 -1.193063 -1.145580
34.100000 -1.195159 -1.145581
34.150000 -1.195958 -1.145581
34.200000 -1.195451 -1.145582
34.250000 -1.193666 -1.145582
34.300000 -1.190663 -1.145583
34.350000 -1.186532 -1.145583
34.400000 -1.181392 -1.145584
34.450000 -1.175386 -1.145584
34.500000 -1.168678 -1.145585
34.550000 -1.161447 -1.145585
34.600000 -1.153887 -1.145586
34.650000 -1.146194 -1.145586
34.700000 -1.138569 -1.145587
34.750000 -1.131206 -1.145587
34.800000 -1.124293 -1.145587
34.850000 -1.118003 -1.145588
34.900000 -1.112490 -1.145588
34.950000 -1.107889 -1.145589
35.000000 -1.104307 -1.145589
35.050000 -1.101826 -1.145589
35.100000 -1.100498 -1.145590
35.150000 -1.100345 -1.145590
35.200000 -1.101358 -1.145590
35.250000 -1.103499 -1.145591
35.300000 -1.106699 -1.145591
35.350000 -1.110866 -1.145591
35.400000 -1.115881 -1.145592
35.450000 -1.121608 -1.145592
35.500000 -1.127889 -1.145592
35.550000 -1.134559 -1.145593
35.600000 -1.141440 -1.145593
35.650000 -1.148354 -1.145593
35.700000 -1.155123 -1.145594
35.750000 -1.161573 -1.145594
35.800000 -1.167542 -1.145594
35.850000 -1.172883 -1.145594
35.900000 -1.177463 -1.145595
35.950000 -1.181174 -1.145595
36.000000 -1.183930 -1.145595
36.050000 -1.185669 -1.145595
36.100000 -1.186358 -1.145596
36.150000 -1.185990 -1.145596
36.200000 -1.184587 -1.145596
36.250000 -1.182196 -1.145596
36.300000 -1.178889 -1.145597
36.350000 -1.174760 -1.145597
36.400000 -1.169926 -1.145597
36.450000 -1.164517 -1.145597
36.500000 -1.158680 -1.145597
36.550000 -1.152569 -1.145598
36.600000 -1.146345 -1.145598
36.650000 -1.140169 -1.145598
36.700000 -1.134199 -1.145598
36.750000 -1.128586 -1.145598
36.800000 -1.123472 -1.145598
36.850000 -1.118983 -1.145599
36.900000 -1.115226 -1.145599
36.950000 -1.112292 -1.145599
37.000000 -1.110247 -1.145599
37.050000 -1.109134 -1.145599
37.100000 -1.108971 -1.145599
37.150000 -1.109752 -1.145600
37.200000 -1.111448 -1.145600
37.250000 -1.114004 -1.145600
37.300000 -1.117345 -1.145600
