time[ns] Raw_signal[mV]
-11.250000 0.085373
-11.200000 0.153891
-11.150000 0.205279
-11.100000 0.208705
-11.050000 0.191576
-11.000000 0.174446
-10.950000 0.147039
-10.900000 0.116206
-10.850000 0.085374
-10.800000 0.037410
-10.750000 -0.010552
-10.700000 -0.024256
-10.650000 -0.017403
-10.600000 -0.044810
-10.550000 -0.079069
-10.500000 -0.109902
-10.450000 -0.133884
-10.400000 -0.168142
-10.350000 -0.195549
-10.300000 -0.229809
-10.250000 -0.236660
-10.200000 -0.219531
-10.150000 -0.188698
-10.100000 -0.127032
-10.050000 -0.020829
-10.000000 0.099076
-9.950000 0.188150
-9.900000 0.273797
-9.850000 0.362871
-9.800000 0.417684
-9.750000 0.434814
-9.700000 0.434814
-9.650000 0.410833
-9.600000 0.342315
-9.550000 0.229261
-9.500000 0.099077
-9.450000 -0.037958
-9.400000 -0.154439
-9.350000 -0.243513
-9.300000 -0.318882
-9.250000 -0.363419
-9.200000 -0.380548
-9.150000 -0.373696
-9.100000 -0.339437
-9.050000 -0.274345
-9.000000 -0.195550
-8.950000 -0.127032
-8.900000 -0.068792
-8.850000 -0.027682
-8.800000 0.013430
-8.750000 0.068244
-8.700000 0.133336
-8.650000 0.177873
-8.600000 0.212132
-8.550000 0.260093
-8.500000 0.314908
-8.450000 0.359445
-8.400000 0.393704
-8.350000 0.424536
-8.300000 0.438240
-8.250000 0.424536
-8.200000 0.393703
-8.150000 0.362870
-8.100000 0.338889
-8.050000 0.314908
-8.000000 0.277223
-7.950000 0.246390
-7.900000 0.222408
-7.850000 0.215557
-7.800000 0.208705
-7.750000 0.205280
-7.700000 0.201854
-7.650000 0.198428
-7.600000 0.198428
-7.550000 0.201853
-7.500000 0.201854
-7.450000 0.205280
-7.400000 0.218983
-7.350000 0.232687
-7.300000 0.256668
-7.250000 0.294353
-7.200000 0.318334
-7.150000 0.325186
-7.100000 0.335463
-7.050000 0.366297
-7.000000 0.359445
-6.950000 0.314908
-6.900000 0.270371
-6.850000 0.215557
-6.800000 0.126484
-6.750000 0.033985
-6.700000 -0.068792
-6.650000 -0.202401
-6.600000 -0.318882
-6.550000 -0.377122
-6.500000 -0.425085
-6.450000 -0.507306
-6.400000 -0.579249
-6.350000 -0.596379
-6.300000 -0.582676
-6.250000 -0.534713
-6.200000 -0.449066
-6.150000 -0.332585
-6.100000 -0.198976
-6.050000 -0.037959
-6.000000 0.133336
-5.950000 0.263519
-5.900000 0.352592
-5.850000 0.431388
-5.800000 0.513609
-5.750000 0.551294
-5.700000 0.523887
-5.650000 0.479350
-5.600000 0.397129
-5.550000 0.260094
-5.500000 0.109354
-5.450000 -0.031107
-5.400000 -0.181846
-5.350000 -0.339437
-5.300000 -0.445640
-5.250000 -0.500454
-5.200000 -0.534713
-5.150000 -0.538139
-5.100000 -0.514158
-5.050000 -0.476473
-5.000000 -0.411381
-4.950000 -0.339437
-4.900000 -0.288049
-4.850000 -0.253790
-4.800000 -0.222957
-4.750000 -0.226383
-4.700000 -0.274345
-4.650000 -0.329160
-4.600000 -0.380548
-4.550000 -0.442214
-4.500000 -0.517583
-4.450000 -0.572397
-4.400000 -0.603231
-4.350000 -0.623786
-4.300000 -0.640915
-4.250000 -0.620360
-4.200000 -0.572398
-4.150000 -0.521009
-4.100000 -0.493602
-4.050000 -0.442214
-4.000000 -0.359993
-3.950000 -0.288049
-3.900000 -0.226383
-3.850000 -0.147587
-3.800000 -0.061940
-3.750000 -0.000274
-3.700000 0.051114
-3.650000 0.099077
-3.600000 0.140188
-3.550000 0.157317
-3.500000 0.174447
-3.450000 0.181298
-3.400000 0.102503
-3.350000 -0.055088
-3.300000 -0.127032
-3.250000 -0.096198
-3.200000 -0.157865
-3.150000 -0.298327
-3.100000 -0.270919
-3.050000 -0.137309
-3.000000 -0.109902
-2.950000 -0.113328
-2.900000 -0.041384
-2.850000 -0.027681
-2.800000 -0.031107
-2.750000 0.129909
-2.700000 0.246390
-2.650000 0.109355
-2.600000 0.030559
-2.550000 0.153891
-2.500000 0.123058
-2.450000 -0.061940
-2.400000 -0.051662
-2.350000 0.016855
-2.300000 -0.109903
-2.250000 -0.144162
-2.200000 0.054540
-2.150000 0.095651
-2.100000 -0.089347
-2.050000 -0.171568
-2.000000 -0.106476
-1.950000 -0.044811
-1.900000 0.027133
-1.850000 0.030559
-1.800000 -0.130458
-1.750000 -0.216105
-1.700000 -0.137309
-1.650000 -0.144161
-1.600000 -0.219531
-1.550000 -0.072218
-1.500000 0.157317
-1.450000 0.232687
-1.400000 0.301204
-1.350000 0.393704
-1.300000 0.369722
-1.250000 0.417684
-1.200000 0.616386
-1.150000 0.558146
-1.100000 0.188150
-1.050000 0.044262
-1.000000 0.126484
-0.950000 -0.020829
-0.900000 -0.243512
-0.850000 -0.216105
-0.800000 -0.178421
-0.750000 -0.294901
-0.700000 -0.257216
-0.650000 -0.048236
-0.600000 0.061392
-0.550000 0.112780
-0.500000 0.260094
-0.450000 0.414259
-0.400000 0.482776
-0.350000 0.520461
-0.300000 0.506758
-0.250000 0.427962
-0.200000 0.321760
-0.150000 0.208705
-0.100000 0.119632
-0.050000 0.061392
0.000000 -0.055089
0.050000 -0.236660
0.100000 -0.291475
0.150000 -0.222957
0.200000 -0.301753
0.250000 -0.469620
0.300000 -0.442214
0.350000 -0.267494
0.400000 -0.216105
0.450000 -0.233235
0.500000 -0.185272
0.550000 -0.157865
0.600000 -0.202402
0.650000 -0.202401
0.700000 -0.106477
0.750000 -0.007126
0.800000 0.119632
0.850000 0.352592
0.900000 0.664349
0.950000 1.037771
1.000000 1.551654
1.050000 2.260814
1.100000 3.144693
1.150000 4.206719
1.200000 5.501706
1.250000 6.988541
1.300000 8.537044
1.350000 10.112949
1.400000 11.822473
1.450000 13.658748
1.500000 15.467622
1.550000 17.211400
1.600000 19.013416
1.650000 20.846269
1.700000 22.535235
1.750000 24.090585
1.800000 25.608245
1.850000 27.033425
1.900000 28.270165
1.950000 29.318495
2.000000 30.192095
2.050000 30.815605
2.100000 31.168475
2.150000 31.267825
2.200000 31.086255
2.250000 30.630605
2.300000 29.959135
2.350000 29.082105
2.400000 27.985815
2.450000 26.718245
2.500000 25.296494
2.550000 23.706883
2.600000 22.041904
2.650000 20.370068
2.700000 18.619437
2.750000 16.817421
2.800000 15.145584
2.850000 13.638194
2.900000 12.206172
2.950000 10.948870
3.000000 9.982769
3.050000 9.225648
3.100000 8.656950
3.150000 8.403435
3.200000 8.423989
3.250000 8.540470
3.300000 8.787134
3.350000 9.222223
3.400000 9.739532
3.450000 10.256841
3.500000 10.794705
3.550000 11.312015
3.600000 11.774510
3.650000 12.202746
3.700000 12.593298
3.750000 12.891351
3.800000 13.100330
3.850000 13.233940
3.900000 13.285328
3.950000 13.251069
4.000000 13.107182
4.050000 12.836536
4.100000 12.459688
4.150000 12.017748
4.200000 11.473032
4.250000 10.774151
4.300000 9.999899
4.350000 9.225648
4.400000 8.447971
4.450000 7.642886
4.500000 6.875488
4.550000 6.176606
4.600000 5.515409
4.650000 4.919304
4.700000 4.446531
4.750000 4.110794
4.800000 3.884685
4.850000 3.771631
4.900000 3.764779
4.950000 3.840149
5.000000 3.960054
5.050000 4.145053
5.100000 4.384866
5.150000 4.624677
5.200000 4.819953
5.250000 4.998100
5.300000 5.148839
5.350000 5.231060
5.400000 5.279022
5.450000 5.316708
5.500000 5.309855
5.550000 5.255042
5.600000 5.207079
5.650000 5.145413
5.700000 5.046062
5.750000 4.974119
5.800000 4.939859
5.850000 4.895323
5.900000 4.826805
5.950000 4.758287
6.000000 4.655511
6.050000 4.518475
6.100000 4.354033
6.150000 4.117645
6.200000 3.805890
6.250000 3.487282
6.300000 3.158397
6.350000 2.750716
6.400000 2.312202
6.450000 1.904521
6.500000 1.524247
6.550000 1.181658
6.600000 0.917864
6.650000 0.719163
6.700000 0.595831
6.750000 0.588979
6.800000 0.650646
6.850000 0.732866
6.900000 0.880180
6.950000 1.085733
7.000000 1.298138
7.050000 1.500266
7.100000 1.695542
7.150000 1.836003
7.200000 1.931928
7.250000 2.014149
7.300000 2.038130
7.350000 2.003872
7.400000 1.959335
7.450000 1.918225
7.500000 1.859984
7.550000 1.798318
7.600000 1.740078
7.650000 1.685264
7.700000 1.644153
7.750000 1.613320
7.800000 1.558506
7.850000 1.500266
7.900000 1.472858
7.950000 1.462581
8.000000 1.411192
8.050000 1.304990
8.100000 1.154251
8.150000 0.986382
8.200000 0.825365
8.250000 0.650645
8.300000 0.441665
8.350000 0.239538
8.400000 0.071670
8.450000 -0.099625
8.500000 -0.281197
8.550000 -0.431936
8.600000 -0.548417
8.650000 -0.654619
8.700000 -0.736841
8.750000 -0.791654
8.800000 -0.822488
8.850000 -0.819062
8.900000 -0.777951
8.950000 -0.706008
9.000000 -0.606657
9.050000 -0.493602
9.100000 -0.380548
9.150000 -0.243512
9.200000 -0.051662
9.250000 0.123058
9.300000 0.236112
9.350000 0.332037
9.400000 0.421111
9.450000 0.455370
9.500000 0.438240
9.550000 0.424536
9.600000 0.414259
9.650000 0.362870
9.700000 0.280649
9.750000 0.222409
9.800000 0.188150
9.850000 0.140188
9.900000 0.068244
9.950000 0.033985
10.000000 0.033985
10.050000 0.003152
10.100000 -0.065366
10.150000 -0.106476
10.200000 -0.140736
10.250000 -0.202401
10.300000 -0.277771
10.350000 -0.332585
10.400000 -0.401103
10.450000 -0.479899
10.500000 -0.572397
10.550000 -0.685452
10.600000 -0.805358
10.650000 -0.904709
10.700000 -1.014337
10.750000 -1.123966
10.800000 -1.195909
10.850000 -1.254150
10.900000 -1.312390
10.950000 -1.332945
11.000000 -1.278131
11.050000 -1.202762
11.100000 -1.127392
11.150000 -1.038319
11.200000 -0.938968
11.250000 -0.846469
11.300000 -0.774525
11.350000 -0.719711
11.400000 -0.702582
11.450000 -0.706007
11.500000 -0.709433
11.550000 -0.723137
11.600000 -0.753970
11.650000 -0.774525
11.700000 -0.753970
11.750000 -0.716285
11.800000 -0.706007
11.850000 -0.723136
11.900000 -0.740266
11.950000 -0.736840
12.000000 -0.753970
12.050000 -0.798506
12.100000 -0.836192
12.150000 -0.863598
12.200000 -0.921838
12.250000 -1.010911
12.300000 -1.093133
12.350000 -1.168503
12.400000 -1.250723
12.450000 -1.315816
12.500000 -1.360353
12.550000 -1.422018
12.600000 -1.473407
12.650000 -1.473407
12.700000 -1.459703
12.750000 -1.466555
12.800000 -1.469981
12.850000 -1.418593
12.900000 -1.322668
12.950000 -1.233595
13.000000 -1.147947
13.050000 -1.048597
13.100000 -0.942394
13.150000 -0.860173
13.200000 -0.767673
13.250000 -0.675175
13.300000 -0.616934
13.350000 -0.592953
13.400000 -0.555269
13.450000 -0.524436
13.500000 -0.548416
13.550000 -0.596379
13.600000 -0.640916
13.650000 -0.712859
13.700000 -0.815636
13.750000 -0.908135
13.800000 -0.976653
13.850000 -1.055448
13.900000 -1.134243
13.950000 -1.216465
14.000000 -1.274705
14.050000 -1.295261
14.100000 -1.291835
14.150000 -1.305539
14.200000 -1.319242
14.250000 -1.295261
14.300000 -1.271279
14.350000 -1.278131
14.400000 -1.284983
14.450000 -1.261002
14.500000 -1.250724
14.550000 -1.250724
14.600000 -1.233594
14.650000 -1.209613
14.700000 -1.189058
14.750000 -1.161651
14.800000 -1.123966
14.850000 -1.089707
14.900000 -1.072578
14.950000 -1.065726
15.000000 -1.072577
15.050000 -1.093133
15.100000 -1.113688
15.150000 -1.141095
15.200000 -1.182206
15.250000 -1.223317
15.300000 -1.247298
15.350000 -1.267854
15.400000 -1.281557
15.450000 -1.274705
15.500000 -1.240446
15.550000 -1.195910
15.600000 -1.154799
15.650000 -1.120540
15.700000 -1.103410
15.750000 -1.089707
15.800000 -1.089707
15.850000 -1.130817
15.900000 -1.219891
15.950000 -1.322668
16.000000 -1.418593
16.050000 -1.514518
16.100000 -1.593313
16.150000 -1.651553
16.200000 -1.713219
16.250000 -1.771460
16.300000 -1.764607
16.350000 -1.692664
16.400000 -1.617294
16.450000 -1.545350
16.500000 -1.449425
16.550000 -1.343223
16.600000 -1.250723
16.650000 -1.151373
16.700000 -1.045170
16.750000 -0.935542
16.800000 -0.836191
16.850000 -0.747118
16.900000 -0.664897
16.950000 -0.596379
17.000000 -0.551843
17.050000 -0.548416
17.100000 -0.562120
17.150000 -0.599805
17.200000 -0.678600
17.250000 -0.788228
17.300000 -0.891006
17.350000 -0.993782
17.400000 -1.099985
17.450000 -1.202762
17.500000 -1.284983
17.550000 -1.343223
17.600000 -1.377482
17.650000 -1.377481
17.700000 -1.346649
17.750000 -1.308964
17.800000 -1.247298
17.850000 -1.171929
17.900000 -1.086281
17.950000 -1.010912
18.000000 -0.962949
18.050000 -0.952672
18.100000 -0.935542
18.150000 -0.914986
18.200000 -0.945820
18.250000 -1.038318
18.300000 -1.134243
18.350000 -1.219891
18.400000 -1.312390
18.450000 -1.408315
18.500000 -1.490536
18.550000 -1.555628
18.600000 -1.583035
18.650000 -1.562480
18.700000 -1.511092
18.750000 -1.449425
18.800000 -1.363778
18.850000 -1.254150
18.900000 -1.147947
18.950000 -1.065726
19.000000 -1.000633
19.050000 -0.966375
19.100000 -0.966375
19.150000 -0.997208
19.200000 -1.055449
19.250000 -1.144522
19.300000 -1.264428
19.350000 -1.380907
19.400000 -1.466555
19.450000 -1.528221
19.500000 -1.589887
19.550000 -1.641275
19.600000 -1.641276
19.650000 -1.617294
19.700000 -1.617294
19.750000 -1.613868
19.800000 -1.583035
19.850000 -1.559054
19.900000 -1.559054
19.950000 -1.562479
20.000000 -1.569331
20.050000 -1.555628
20.100000 -1.521370
20.150000 -1.473407
20.200000 -1.415166
20.250000 -1.343223
20.300000 -1.264427
20.350000 -1.185632
20.400000 -1.072578
20.450000 -0.959523
20.500000 -0.894432
20.550000 -0.829339
20.600000 -0.767674
20.650000 -0.760822
20.700000 -0.784803
20.750000 -0.784803
20.800000 -0.784803
20.850000 -0.822488
20.900000 -0.856747
20.950000 -0.870450
21.000000 -0.918412
21.050000 -0.983505
21.100000 -1.024616
21.150000 -1.045171
21.200000 -1.076004
21.250000 -1.099984
21.300000 -1.123966
21.350000 -1.168503
21.400000 -1.171929
21.450000 -1.120540
21.500000 -1.082855
21.550000 -1.058874
21.600000 -1.010911
21.650000 -0.976653
21.700000 -0.973226
21.750000 -0.973227
21.800000 -0.980079
21.850000 -1.024615
21.900000 -1.089708
21.950000 -1.130818
22.000000 -1.154799
22.050000 -1.154799
22.100000 -1.103411
22.150000 -1.028041
22.200000 -0.976653
22.250000 -0.928690
22.300000 -0.856747
22.350000 -0.791655
22.400000 -0.753970
22.450000 -0.747118
22.500000 -0.753970
22.550000 -0.771099
22.600000 -0.781377
22.650000 -0.808785
22.700000 -0.843043
22.750000 -0.843043
22.800000 -0.825913
22.850000 -0.832766
22.900000 -0.829339
22.950000 -0.805358
23.000000 -0.798506
23.050000 -0.822488
23.100000 -0.870450
23.150000 -0.959523
23.200000 -1.079429
23.250000 -1.202761
23.300000 -1.319242
23.350000 -1.425444
23.400000 -1.500814
23.450000 -1.559054
23.500000 -1.600165
23.550000 -1.583035
23.600000 -1.517943
23.650000 -1.449426
23.700000 -1.370630
23.750000 -1.257575
23.800000 -1.161651
23.850000 -1.103411
23.900000 -1.041745
23.950000 -0.993782
24.000000 -1.014338
24.050000 -1.082855
24.100000 -1.137670
24.150000 -1.192484
24.200000 -1.257576
24.250000 -1.305538
24.300000 -1.332945
24.350000 -1.356926
24.400000 -1.363778
24.450000 -1.336371
24.500000 -1.291835
24.550000 -1.233595
24.600000 -1.168502
24.650000 -1.120540
24.700000 -1.099984
24.750000 -1.072577
24.800000 -1.031467
24.850000 -1.007485
24.900000 -1.021189
24.950000 -1.045171
25.000000 -1.062300
25.050000 -1.076004
25.100000 -1.096559
25.150000 -1.113688
25.200000 -1.134243
25.250000 -1.161650
25.300000 -1.178780
25.350000 -1.158225
25.400000 -1.158225
25.450000 -1.195910
25.500000 -1.219890
25.550000 -1.226742
25.600000 -1.257576
25.650000 -1.302112
25.700000 -1.326093
25.750000 -1.370630
25.800000 -1.418592
25.850000 -1.456277
25.900000 -1.487110
25.950000 -1.545350
26.000000 -1.579609
26.050000 -1.579610
26.100000 -1.562480
26.150000 -1.514517
26.200000 -1.418593
26.250000 -1.319242
26.300000 -1.233594
26.350000 -1.127391
26.400000 -1.017763
26.450000 -0.956098
26.500000 -0.928690
26.550000 -0.901283
26.600000 -0.884153
26.650000 -0.904709
26.700000 -0.966375
26.750000 -1.052023
26.800000 -1.123966
26.850000 -1.158224
26.900000 -1.195909
26.950000 -1.257575
27.000000 -1.305538
27.050000 -1.305539
27.100000 -1.295261
27.150000 -1.308964
27.200000 -1.319241
27.250000 -1.281557
27.300000 -1.216465
27.350000 -1.182206
27.400000 -1.168502
27.450000 -1.130818
27.500000 -1.103411
27.550000 -1.137669
27.600000 -1.185632
27.650000 -1.209613
27.700000 -1.257575
27.750000 -1.377481
27.800000 -1.511092
27.850000 -1.617294
27.900000 -1.720071
27.950000 -1.815995
28.000000 -1.867384
28.050000 -1.881088
28.100000 -1.877662
28.150000 -1.836551
28.200000 -1.737200
28.250000 -1.624146
28.300000 -1.514518
28.350000 -1.408315
28.400000 -1.315816
28.450000 -1.250724
28.500000 -1.213039
28.550000 -1.189058
28.600000 -1.161651
28.650000 -1.134244
28.700000 -1.103411
28.750000 -1.048597
28.800000 -0.976653
28.850000 -0.914987
28.900000 -0.873876
28.950000 -0.843043
29.000000 -0.829340
29.050000 -0.839617
29.100000 -0.884153
29.150000 -0.976652
29.200000 -1.103410
29.250000 -1.237020
29.300000 -1.374056
29.350000 -1.490537
29.400000 -1.559054
29.450000 -1.569332
29.500000 -1.552202
29.550000 -1.487110
29.600000 -1.374056
29.650000 -1.257576
29.700000 -1.165076
29.750000 -1.072578
29.800000 -1.004060
29.850000 -1.014338
29.900000 -1.069152
29.950000 -1.117114
30.000000 -1.182206
30.050000 -1.284983
30.100000 -1.387760
30.150000 -1.469981
30.200000 -1.528221
30.250000 -1.565905
30.300000 -1.586461
30.350000 -1.600165
30.400000 -1.607017
30.450000 -1.620721
30.500000 -1.668683
30.550000 -1.716645
30.600000 -1.723497
30.650000 -1.730348
30.700000 -1.764608
30.750000 -1.757756
30.800000 -1.713219
30.850000 -1.696090
30.900000 -1.682386
30.950000 -1.613868
31.000000 -1.548776
31.050000 -1.545351
31.100000 -1.552203
31.150000 -1.545351
31.200000 -1.565905
31.250000 -1.620720
31.300000 -1.668682
31.350000 -1.713220
31.400000 -1.764607
31.450000 -1.781737
31.500000 -1.761181
31.550000 -1.726923
31.600000 -1.675535
31.650000 -1.579609
31.700000 -1.466555
31.750000 -1.346649
31.800000 -1.237021
31.850000 -1.158225
31.900000 -1.117114
31.950000 -1.086282
32.000000 -1.093133
32.050000 -1.137670
32.100000 -1.189058
32.150000 -1.250724
32.200000 -1.319241
32.250000 -1.367204
32.300000 -1.411741
32.350000 -1.476833
32.400000 -1.521369
32.450000 -1.521369
32.500000 -1.507665
32.550000 -1.497388
32.600000 -1.480258
32.650000 -1.473407
32.700000 -1.497388
32.750000 -1.490537
32.800000 -1.459703
32.850000 -1.459704
32.900000 -1.469981
32.950000 -1.456277
33.000000 -1.456277
33.050000 -1.497388
33.100000 -1.535073
33.150000 -1.572758
33.200000 -1.637849
33.250000 -1.720071
33.300000 -1.802293
33.350000 -1.887939
33.400000 -1.970161
33.450000 -2.052382
33.500000 -2.138029
33.550000 -2.179140
33.600000 -2.158585
33.650000 -2.127752
33.700000 -2.096919
33.750000 -1.990717
33.800000 -1.839977
33.850000 -1.720071
33.900000 -1.579609
33.950000 -1.401463
34.000000 -1.274705
34.050000 -1.213039
34.100000 -1.141096
34.150000 -1.079429
34.200000 -1.076004
34.250000 -1.130817
34.300000 -1.199335
34.350000 -1.295261
34.400000 -1.394611
34.450000 -1.480259
34.500000 -1.579609
34.550000 -1.672109
34.600000 -1.733774
34.650000 -1.764607
34.700000 -1.771459
34.750000 -1.750904
34.800000 -1.713219
34.850000 -1.672108
34.900000 -1.603591
34.950000 -1.504239
35.000000 -1.411741
35.050000 -1.343223
35.100000 -1.295261
35.150000 -1.274705
35.200000 -1.281557
35.250000 -1.305538
35.300000 -1.363778
35.350000 -1.435722
35.400000 -1.500814
35.450000 -1.572758
35.500000 -1.648128
35.550000 -1.726923
35.600000 -1.812570
35.650000 -1.911920
35.700000 -1.983864
35.750000 -2.038678
35.800000 -2.114048
35.850000 -2.175714
35.900000 -2.196269
35.950000 -2.199695
36.000000 -2.185992
36.050000 -2.158585
36.100000 -2.131178
36.150000 -2.096919
36.200000 -2.028401
36.250000 -1.980438
36.300000 -1.970160
36.350000 -1.946180
36.400000 -1.922198
36.450000 -1.953032
36.500000 -2.014697
36.550000 -2.035253
36.600000 -2.062660
36.650000 -2.103770
36.700000 -2.110623
36.750000 -2.096918
36.800000 -2.103771
36.850000 -2.086641
36.900000 -2.028401
36.950000 -1.987290
37.000000 -1.953032
37.050000 -1.898217
37.100000 -1.860533
37.150000 -1.805718
37.200000 -1.716645
37.250000 -1.665257
37.300000 -1.651553
37.350000 -1.576184
37.400000 -1.445999
37.450000 -1.346649
37.500000 -1.250724
37.550000 -1.123966
37.600000 -1.004060
37.650000 -0.901283
37.700000 -0.815635
37.750000 -0.781377
37.800000 -0.788228
37.850000 -0.784802
37.900000 -0.798507
37.950000 -0.849895
38.000000 -0.928690
38.050000 -1.021189
38.100000 -1.110262
38.150000 -1.158225
38.200000 -1.182207
38.250000 -1.240446
38.300000 -1.298686
38.350000 -1.295260
38.400000 -1.264427
38.450000 -1.243872
38.500000 -1.202762
38.550000 -1.168503
38.600000 -1.192484
38.650000 -1.230168
38.700000 -1.267853
38.750000 -1.360352
38.800000 -1.473407
38.850000 -1.569332
38.900000 -1.678960
38.950000 -1.792015
39.000000 -1.846829
39.050000 -1.870810
39.100000 -1.908495
39.150000 -1.908495
39.200000 -1.843403
39.250000 -1.764607
39.300000 -1.689238
39.350000 -1.593313
39.400000 -1.493962
39.450000 -1.408315
39.500000 -1.332945
39.550000 -1.288408
39.600000 -1.284983
39.650000 -1.278131
