fit_time[ns] Functional_fit[mV] Thermal_fit[mV]
3.700000 16.284243 16.001850
3.750000 16.100613 15.651670
3.800000 15.911524 15.309002
3.850000 15.713022 14.973677
3.900000 15.501617 14.645531
3.950000 15.274365 14.324402
4.000000 15.028935 14.010135
4.050000 14.763653 13.702575
4.100000 14.477543 13.401574
4.150000 14.170335 13.106985
4.200000 13.842462 12.818666
4.250000 13.495043 12.536478
4.300000 13.129839 12.260286
4.350000 12.749204 11.989955
4.400000 12.356013 11.725357
4.450000 11.953580 11.466366
4.500000 11.545569 11.212857
4.550000 11.135893 10.964711
4.600000 10.728608 10.721808
4.650000 10.327808 10.484035
4.700000 9.937515 10.251277
4.750000 9.561576 10.023427
4.800000 9.203563 9.800375
4.850000 8.866683 9.582018
4.900000 8.553694 9.368253
4.950000 8.266843 9.158979
5.000000 8.007803 8.954100
5.050000 7.777639 8.753519
5.100000 7.576781 8.557142
5.150000 7.405019 8.364880
5.200000 7.261509 8.176642
5.250000 7.144802 7.992341
5.300000 7.052880 7.811892
5.350000 6.983213 7.635213
5.400000 6.932824 7.462220
5.450000 6.898372 7.292836
5.500000 6.876229 7.126982
5.550000 6.862584 6.964582
5.600000 6.853530 6.805563
5.650000 6.845168 6.649850
5.700000 6.833703 6.497374
5.750000 6.815538 6.348065
5.800000 6.787360 6.201856
5.850000 6.746222 6.058679
5.900000 6.689611 5.918470
5.950000 6.615510 5.781166
6.000000 6.522438 5.646704
6.050000 6.409485 5.515025
6.100000 6.276325 5.386068
6.150000 6.123221 5.259776
6.200000 5.951008 5.136092
6.250000 5.761068 5.014961
6.300000 5.555285 4.896329
6.350000 5.335995 4.780142
6.400000 5.105917 4.666349
6.450000 4.868080 4.554898
6.500000 4.625745 4.445742
6.550000 4.382315 4.338830
6.600000 4.141245 4.234116
6.650000 3.905957 4.131553
6.700000 3.679749 4.031096
6.750000 3.465710 3.932700
6.800000 3.266644 3.836322
6.850000 3.085002 3.741920
6.900000 2.922818 3.649452
6.950000 2.781660 3.558877
7.000000 2.662599 3.470156
7.050000 2.566179 3.383250
7.100000 2.492411 3.298120
7.150000 2.440774 3.214730
7.200000 2.410234 3.133043
7.250000 2.399273 3.053023
7.300000 2.405935 2.974636
7.350000 2.427872 2.897848
7.400000 2.462412 2.822624
7.450000 2.506627 2.748933
7.500000 2.557411 2.676743
7.550000 2.611556 2.606022
7.600000 2.665837 2.536739
7.650000 2.717094 2.468865
7.700000 2.762307 2.402371
7.750000 2.798676 2.337228
7.800000 2.823684 2.273407
7.850000 2.835162 2.210881
7.900000 2.831338 2.149624
7.950000 2.810880 2.089609
8.000000 2.772921 2.030810
8.050000 2.717080 1.973203
8.100000 2.643465 1.916762
8.150000 2.552665 1.861464
8.200000 2.445729 1.807284
8.250000 2.324138 1.754200
8.300000 2.189759 1.702190
8.350000 2.044792 1.651230
8.400000 1.891717 1.601299
8.450000 1.733221 1.552377
8.500000 1.572131 1.504442
8.550000 1.411338 1.457474
8.600000 1.253724 1.411453
8.650000 1.102089 1.366360
8.700000 0.959076 1.322175
8.750000 0.827110 1.278880
8.800000 0.708333 1.236457
8.850000 0.604555 1.194888
8.900000 0.517210 1.154155
8.950000 0.447322 1.114241
9.000000 0.395481 1.075130
9.050000 0.361835 1.036804
9.100000 0.346086 0.999248
9.150000 0.347505 0.962447
9.200000 0.364952 0.926384
9.250000 0.396907 0.891044
9.300000 0.441516 0.856414
9.350000 0.496637 0.822478
9.400000 0.559899 0.789221
9.450000 0.628765 0.756632
9.500000 0.700592 0.724695
9.550000 0.772707 0.693397
9.600000 0.842468 0.662726
9.650000 0.907337 0.632668
9.700000 0.964937 0.603212
9.750000 1.013113 0.574345
9.800000 1.049988 0.546054
9.850000 1.074002 0.518329
9.900000 1.083952 0.491158
9.950000 1.079018 0.464529
10.000000 1.058782 0.438431
10.050000 1.023230 0.412855
10.100000 0.972754 0.387788
10.150000 0.908132 0.363222
10.200000 0.830510 0.339145
10.250000 0.741365 0.315548
10.300000 0.642467 0.292421
10.350000 0.535829 0.269754
10.400000 0.423655 0.247539
10.450000 0.308279 0.225766
10.500000 0.192108 0.204426
10.550000 0.077556 0.183511
10.600000 -0.033013 0.163012
10.650000 -0.137350 0.142920
10.700000 -0.233375 0.123227
10.750000 -0.319226 0.103926
10.800000 -0.393310 0.085008
10.850000 -0.454337 0.066466
10.900000 -0.501351 0.048291
10.950000 -0.533754 0.030477
11.000000 -0.551314 0.013017
11.050000 -0.554170 -0.004097
11.100000 -0.542825 -0.020872
11.150000 -0.518131 -0.037314
11.200000 -0.481261 -0.053430
11.250000 -0.433682 -0.069227
11.300000 -0.377107 -0.084712
11.350000 -0.313457 -0.099889
11.400000 -0.244806 -0.114767
11.450000 -0.173330 -0.129350
11.500000 -0.101247 -0.143644
11.550000 -0.030764 -0.157656
11.600000 0.035983 -0.171390
11.650000 0.096978 -0.184854
11.700000 0.150376 -0.198051
11.750000 0.194551 -0.210987
11.800000 0.228134 -0.223668
11.850000 0.250043 -0.236099
11.900000 0.259511 -0.248284
11.950000 0.256100 -0.260228
12.000000 0.239709 -0.271937
12.050000 0.210577 -0.283415
12.100000 0.169268 -0.294667
12.150000 0.116659 -0.305696
12.200000 0.053908 -0.316509
12.250000 -0.017570 -0.327108
12.300000 -0.096147 -0.337498
12.350000 -0.180026 -0.347684
12.400000 -0.267283 -0.357669
12.450000 -0.355925 -0.367458
12.500000 -0.443935 -0.377054
12.550000 -0.529325 -0.386461
12.600000 -0.610188 -0.395683
12.650000 -0.684747 -0.404724
12.700000 -0.751395 -0.413587
12.750000 -0.808738 -0.422275
12.800000 -0.855625 -0.430793
12.850000 -0.891181 -0.439144
12.900000 -0.914820 -0.447330
12.950000 -0.926261 -0.455356
13.000000 -0.925533 -0.463224
13.050000 -0.912970 -0.470937
13.100000 -0.889198 -0.478500
13.150000 -0.855121 -0.485913
13.200000 -0.811892 -0.493182
13.250000 -0.760883 -0.500307
13.300000 -0.703645 -0.507293
13.350000 -0.641872 -0.514142
13.400000 -0.577353 -0.520857
13.450000 -0.511929 -0.527440
13.500000 -0.447440 -0.533895
13.550000 -0.385683 -0.540222
13.600000 -0.328367 -0.546426
13.650000 -0.277068 -0.552508
13.700000 -0.233191 -0.558472
13.750000 -0.197935 -0.564318
13.800000 -0.172269 -0.570050
13.850000 -0.156901 -0.575670
13.900000 -0.152273 -0.581180
13.950000 -0.158542 -0.586583
14.000000 -0.175587 -0.591879
14.050000 -0.203010 -0.597072
14.100000 -0.240149 -0.602164
14.150000 -0.286100 -0.607156
14.200000 -0.339741 -0.612050
14.250000 -0.399760 -0.616849
14.300000 -0.464695 -0.621554
14.350000 -0.532968 -0.626168
14.400000 -0.602930 -0.630691
14.450000 -0.672901 -0.635126
14.500000 -0.741215 -0.639474
14.550000 -0.806261 -0.643738
14.600000 -0.866525 -0.647918
14.650000 -0.920623 -0.652017
14.700000 -0.967344 -0.656036
14.750000 -1.005669 -0.659977
14.800000 -1.034803 -0.663840
14.850000 -1.054190 -0.667629
14.900000 -1.063523 -0.671343
14.950000 -1.062755 -0.674986
15.000000 -1.052092 -0.678557
15.050000 -1.031989 -0.682059
15.100000 -1.003136 -0.685492
15.150000 -0.966435 -0.688859
15.200000 -0.922979 -0.692160
15.250000 -0.874022 -0.695397
15.300000 -0.820944 -0.698571
15.350000 -0.765213 -0.701683
15.400000 -0.708353 -0.704735
15.450000 -0.651899 -0.707727
15.500000 -0.597360 -0.710661
15.550000 -0.546181 -0.713538
15.600000 -0.499706 -0.716359
15.650000 -0.459146 -0.719126
15.700000 -0.425550 -0.721838
15.750000 -0.399776 -0.724498
15.800000 -0.382476 -0.727106
15.850000 -0.374077 -0.729664
15.900000 -0.374777 -0.732172
15.950000 -0.384537 -0.734631
16.000000 -0.403088 -0.737042
16.050000 -0.429938 -0.739407
16.100000 -0.464387 -0.741726
16.150000 -0.505548 -0.743999
16.200000 -0.552369 -0.746229
16.250000 -0.603664 -0.748416
16.300000 -0.658143 -0.750560
16.350000 -0.714444 -0.752662
16.400000 -0.771172 -0.754724
16.450000 -0.826934 -0.756745
16.500000 -0.880371 -0.758728
16.550000 -0.930197 -0.760672
16.600000 -0.975227 -0.762578
16.650000 -1.014409 -0.764448
16.700000 -1.046849 -0.766281
16.750000 -1.071831 -0.768079
16.800000 -1.088835 -0.769842
16.850000 -1.097548 -0.771571
16.900000 -1.097870 -0.773266
16.950000 -1.089914 -0.774929
17.000000 -1.074002 -0.776559
17.050000 -1.050654 -0.778158
17.100000 -1.020576 -0.779726
17.150000 -0.984634 -0.781263
17.200000 -0.943837 -0.782771
17.250000 -0.899307 -0.784250
17.300000 -0.852250 -0.785700
17.350000 -0.803922 -0.787122
17.400000 -0.755602 -0.788516
17.450000 -0.708555 -0.789884
17.500000 -0.664001 -0.791225
17.550000 -0.623084 -0.792540
17.600000 -0.586846 -0.793830
17.650000 -0.556197 -0.795095
17.700000 -0.531899 -0.796336
17.750000 -0.514541 -0.797552
17.800000 -0.504532 -0.798745
17.850000 -0.502089 -0.799915
17.900000 -0.507234 -0.801063
17.950000 -0.519795 -0.802188
18.000000 -0.539411 -0.803292
18.050000 -0.565548 -0.804374
18.100000 -0.597506 -0.805436
18.150000 -0.634446 -0.806476
18.200000 -0.675408 -0.807497
18.250000 -0.719340 -0.808498
18.300000 -0.765121 -0.809480
18.350000 -0.811595 -0.810443
18.400000 -0.857599 -0.811388
18.450000 -0.901989 -0.812314
18.500000 -0.943675 -0.813222
18.550000 -0.981647 -0.814113
18.600000 -1.014994 -0.814987
18.650000 -1.042934 -0.815844
18.700000 -1.064829 -0.816684
18.750000 -1.080199 -0.817508
18.800000 -1.088734 -0.818316
18.850000 -1.090303 -0.819109
18.900000 -1.084951 -0.819886
18.950000 -1.072897 -0.820649
19.000000 -1.054530 -0.821397
19.050000 -1.030396 -0.822130
19.100000 -1.001181 -0.822849
19.150000 -0.967694 -0.823555
19.200000 -0.930844 -0.824247
19.250000 -0.891618 -0.824925
19.300000 -0.851054 -0.825591
19.350000 -0.810212 -0.826244
19.400000 -0.770152 -0.826884
19.450000 -0.731901 -0.827512
19.500000 -0.696432 -0.828127
19.550000 -0.664637 -0.828731
19.600000 -0.637306 -0.829324
19.650000 -0.615109 -0.829905
19.700000 -0.598577 -0.830475
19.750000 -0.588092 -0.831033
19.800000 -0.583880 -0.831582
19.850000 -0.586003 -0.832119
19.900000 -0.594362 -0.832646
19.950000 -0.608700 -0.833164
20.000000 -0.628610 -0.833671
20.050000 -0.653546 -0.834168
20.100000 -0.682841 -0.834656
20.150000 -0.715721 -0.835135
20.200000 -0.751328 -0.835604
20.250000 -0.788743 -0.836065
20.300000 -0.827009 -0.836516
20.350000 -0.865157 -0.836959
20.400000 -0.902229 -0.837393
20.450000 -0.937302 -0.837819
20.500000 -0.969513 -0.838237
20.550000 -0.998082 -0.838647
20.600000 -1.022324 -0.839049
20.650000 -1.041675 -0.839443
20.700000 -1.055697 -0.839830
20.750000 -1.064093 -0.840209
20.800000 -1.066712 -0.840582
20.850000 -1.063550 -0.840946
20.900000 -1.054750 -0.841304
20.950000 -1.040599 -0.841655
21.000000 -1.021515 -0.842000
21.050000 -0.998039 -0.842338
21.100000 -0.970816 -0.842669
21.150000 -0.940583 -0.842994
21.200000 -0.908145 -0.843312
21.250000 -0.874357 -0.843625
21.300000 -0.840098 -0.843932
21.350000 -0.806252 -0.844232
21.400000 -0.773684 -0.844527
21.450000 -0.743218 -0.844817
21.500000 -0.715618 -0.845101
21.550000 -0.691565 -0.845379
21.600000 -0.671647 -0.845652
21.650000 -0.656337 -0.845920
21.700000 -0.645991 -0.846182
21.750000 -0.640831 -0.846440
21.800000 -0.640947 -0.846693
21.850000 -0.646293 -0.846941
21.900000 -0.656692 -0.847184
21.950000 -0.671838 -0.847422
22.000000 -0.691308 -0.847656
22.050000 -0.714572 -0.847886
22.100000 -0.741009 -0.848111
22.150000 -0.769922 -0.848332
22.200000 -0.800559 -0.848548
22.250000 -0.832130 -0.848761
22.300000 -0.863828 -0.848969
22.350000 -0.894851 -0.849174
22.400000 -0.924422 -0.849374
22.450000 -0.951806 -0.849571
22.500000 -0.976333 -0.849764
22.550000 -0.997410 -0.849953
22.600000 -1.014538 -0.850138
22.650000 -1.027323 -0.850321
22.700000 -1.035484 -0.850499
22.750000 -1.038861 -0.850674
22.800000 -1.037417 -0.850846
22.850000 -1.031239 -0.851015
22.900000 -1.020532 -0.851180
22.950000 -1.005615 -0.851342
23.000000 -0.986910 -0.851501
23.050000 -0.964932 -0.851657
23.100000 -0.940276 -0.851810
23.150000 -0.913597 -0.851960
23.200000 -0.885597 -0.852108
23.250000 -0.857003 -0.852252
23.300000 -0.828554 -0.852394
23.350000 -0.800974 -0.852533
23.400000 -0.774960 -0.852669
23.450000 -0.751165 -0.852803
23.500000 -0.730175 -0.852934
23.550000 -0.712502 -0.853063
23.600000 -0.698568 -0.853189
23.650000 -0.688695 -0.853313
23.700000 -0.683102 -0.853435
23.750000 -0.681892 -0.853554
23.800000 -0.685060 -0.853671
23.850000 -0.692486 -0.853785
23.900000 -0.703946 -0.853898
23.950000 -0.719113 -0.854008
24.000000 -0.737569 -0.854116
24.050000 -0.758818 -0.854223
24.100000 -0.782295 -0.854327
24.150000 -0.807385 -0.854429
24.200000 -0.833438 -0.854529
24.250000 -0.859784 -0.854627
24.300000 -0.885752 -0.854724
24.350000 -0.910689 -0.854819
24.400000 -0.933972 -0.854911
24.450000 -0.955026 -0.855002
24.500000 -0.973339 -0.855092
24.550000 -0.988472 -0.855179
24.600000 -1.000073 -0.855265
24.650000 -1.007881 -0.855350
24.700000 -1.011735 -0.855432
24.750000 -1.011577 -0.855513
24.800000 -1.007448 -0.855593
24.850000 -0.999495 -0.855671
24.900000 -0.987955 -0.855748
24.950000 -0.973159 -0.855823
25.000000 -0.955514 -0.855896
25.050000 -0.935499 -0.855969
25.100000 -0.913646 -0.856040
25.150000 -0.890530 -0.856109
25.200000 -0.866752 -0.856178
25.250000 -0.842926 -0.856244
25.300000 -0.819660 -0.856310
25.350000 -0.797542 -0.856375
25.400000 -0.777126 -0.856438
25.450000 -0.758916 -0.856500
25.500000 -0.743358 -0.856561
25.550000 -0.730824 -0.856620
25.600000 -0.721606 -0.856679
25.650000 -0.715910 -0.856736
25.700000 -0.713848 -0.856793
25.750000 -0.715442 -0.856848
25.800000 -0.720618 -0.856902
25.850000 -0.729212 -0.856955
25.900000 -0.740975 -0.857007
25.950000 -0.755581 -0.857059
26.000000 -0.772631 -0.857109
26.050000 -0.791672 -0.857158
26.100000 -0.812201 -0.857206
26.150000 -0.833684 -0.857254
26.200000 -0.855566 -0.857300
26.250000 -0.877288 -0.857346
26.300000 -0.898300 -0.857391
26.350000 -0.918076 -0.857435
26.400000 -0.936125 -0.857478
26.450000 -0.952004 -0.857520
26.500000 -0.965332 -0.857561
26.550000 -0.975794 -0.857602
26.600000 -0.983151 -0.857642
26.650000 -0.987247 -0.857681
26.700000 -0.988008 -0.857719
26.750000 -0.985447 -0.857757
26.800000 -0.979661 -0.857794
26.850000 -0.970828 -0.857830
26.900000 -0.959202 -0.857866
26.950000 -0.945106 -0.857901
27.000000 -0.928923 -0.857935
27.050000 -0.911083 -0.857969
27.100000 -0.892058 -0.858002
27.150000 -0.872343 -0.858034
27.200000 -0.852447 -0.858066
27.250000 -0.832879 -0.858097
27.300000 -0.814134 -0.858127
27.350000 -0.796683 -0.858157
27.400000 -0.780957 -0.858186
27.450000 -0.767342 -0.858215
27.500000 -0.756165 -0.858244
27.550000 -0.747688 -0.858271
27.600000 -0.742104 -0.858298
27.650000 -0.739527 -0.858325
27.700000 -0.739996 -0.858351
27.750000 -0.743471 -0.858377
27.800000 -0.749837 -0.858402
27.850000 -0.758906 -0.858427
27.900000 -0.770421 -0.858451
27.950000 -0.784069 -0.858475
28.000000 -0.799483 -0.858498
28.050000 -0.816254 -0.858521
28.100000 -0.833944 -0.858544
28.150000 -0.852096 -0.858566
28.200000 -0.870243 -0.858587
28.250000 -0.887924 -0.858609
28.300000 -0.904695 -0.858629
28.350000 -0.920138 -0.858650
28.400000 -0.933873 -0.858670
28.450000 -0.945567 -0.858690
28.500000 -0.954942 -0.858709
28.550000 -0.961781 -0.858728
28.600000 -0.965935 -0.858746
28.650000 -0.967323 -0.858765
28.700000 -0.965936 -0.858782
28.750000 -0.961836 -0.858800
28.800000 -0.955152 -0.858817
28.850000 -0.946080 -0.858834
28.900000 -0.934873 -0.858851
28.950000 -0.921835 -0.858867
29.000000 -0.907317 -0.858883
29.050000 -0.891702 -0.858898
29.100000 -0.875397 -0.858914
29.150000 -0.858824 -0.858929
29.200000 -0.842408 -0.858943
29.250000 -0.826565 -0.858958
29.300000 -0.811693 -0.858972
29.350000 -0.798163 -0.858986
29.400000 -0.786305 -0.859000
29.450000 -0.776407 -0.859013
29.500000 -0.768702 -0.859026
29.550000 -0.763367 -0.859039
29.600000 -0.760515 -0.859052
29.650000 -0.760196 -0.859064
29.700000 -0.762395 -0.859077
29.750000 -0.767034 -0.859088
29.800000 -0.773971 -0.859100
29.850000 -0.783009 -0.859112
29.900000 -0.793898 -0.859123
29.950000 -0.806346 -0.859134
30.000000 -0.820021 -0.859145
30.050000 -0.834564 -0.859156
30.100000 -0.849597 -0.859166
30.150000 -0.864734 -0.859176
30.200000 -0.879588 -0.859186
30.250000 -0.893785 -0.859196
30.300000 -0.906970 -0.859206
30.350000 -0.918817 -0.859216
30.400000 -0.929038 -0.859225
30.450000 -0.937388 -0.859234
30.500000 -0.943671 -0.859243
30.550000 -0.947748 -0.859252
30.600000 -0.949536 -0.859261
30.650000 -0.949010 -0.859269
30.700000 -0.946207 -0.859277
30.750000 -0.941218 -0.859286
30.800000 -0.934190 -0.859294
30.850000 -0.925323 -0.859301
30.900000 -0.914858 -0.859309
30.950000 -0.903078 -0.859317
31.000000 -0.890294 -0.859324
31.050000 -0.876840 -0.859331
31.100000 -0.863067 -0.859339
31.150000 -0.849326 -0.859346
31.200000 -0.835968 -0.859352
31.250000 -0.823330 -0.859359
31.300000 -0.811725 -0.859366
31.350000 -0.801440 -0.859372
31.400000 -0.792724 -0.859379
31.450000 -0.785786 -0.859385
31.500000 -0.780784 -0.859391
31.550000 -0.777828 -0.859397
31.600000 -0.776975 -0.859403
31.650000 -0.778226 -0.859409
31.700000 -0.781532 -0.859415
31.750000 -0.786787 -0.859420
31.800000 -0.793842 -0.859426
31.850000 -0.802500 -0.859431
31.900000 -0.812525 -0.859436
31.950000 -0.823650 -0.859441
32.000000 -0.835582 -0.859446
32.050000 -0.848011 -0.859451
32.100000 -0.860615 -0.859456
32.150000 -0.873072 -0.859461
32.200000 -0.885067 -0.859466
32.250000 -0.896299 -0.859470
32.300000 -0.906489 -0.859475
32.350000 -0.915389 -0.859479
32.400000 -0.922784 -0.859484
32.450000 -0.928499 -0.859488
32.500000 -0.932406 -0.859492
32.550000 -0.934421 -0.859496
32.600000 -0.934512 -0.859500
32.650000 -0.932693 -0.859504
32.700000 -0.929029 -0.859508
32.750000 -0.923631 -0.859512
32.800000 -0.916651 -0.859516
32.850000 -0.908284 -0.859519
32.900000 -0.898753 -0.859523
32.950000 -0.888313 -0.859527
33.000000 -0.877237 -0.859530
33.050000 -0.865814 -0.859534
33.100000 -0.854338 -0.859537
33.150000 -0.843100 -0.859540
33.200000 -0.832386 -0.859543
33.250000 -0.822461 -0.859546
33.300000 -0.813573 -0.859550
33.350000 -0.805937 -0.859553
33.400000 -0.799735 -0.859556
33.450000 -0.795113 -0.859559
33.500000 -0.792174 -0.859561
33.550000 -0.790976 -0.859564
33.600000 -0.791535 -0.859567
33.650000 -0.793818 -0.859570
33.700000 -0.797754 -0.859572
33.750000 -0.803225 -0.859575
33.800000 -0.810079 -0.859578
33.850000 -0.818128 -0.859580
33.900000 -0.827157 -0.859582
33.950000 -0.836927 -0.859585
34.000000 -0.847183 -0.859587
34.050000 -0.857658 -0.859590
34.100000 -0.868086 -0.859592
34.150000 -0.878200 -0.859594
34.200000 -0.887747 -0.859596
34.250000 -0.896488 -0.859598
34.300000 -0.904211 -0.859601
34.350000 -0.910726 -0.859603
34.400000 -0.915880 -0.859605
34.450000 -0.919555 -0.859607
34.500000 -0.921670 -0.859609
34.550000 -0.922187 -0.859611
34.600000 -0.921107 -0.859612
34.650000 -0.918472 -0.859614
34.700000 -0.914365 -0.859616
34.750000 -0.908903 -0.859618
34.800000 -0.902238 -0.859620
34.850000 -0.894551 -0.859621
34.900000 -0.886047 -0.859623
34.950000 -0.876949 -0.859625
35.000000 -0.867496 -0.859626
35.050000 -0.857930 -0.859628
35.100000 -0.848496 -0.859630
35.150000 -0.839434 -0.859631
35.200000 -0.830969 -0.859633
35.250000 -0.823312 -0.859634
35.300000 -0.816651 -0.859635
35.350000 -0.811145 -0.859637
35.400000 -0.806923 -0.859638
35.450000 -0.804082 -0.859640
35.500000 -0.802681 -0.859641
35.550000 -0.802742 -0.859642
35.600000 -0.804250 -0.859644
35.650000 -0.807153 -0.859645
35.700000 -0.811365 -0.859646
35.750000 -0.816765 -0.859647
35.800000 -0.823207 -0.859649
35.850000 -0.830515 -0.859650
35.900000 -0.838497 -0.859651
35.950000 -0.846942 -0.859652
36.000000 -0.855632 -0.859653
36.050000 -0.864344 -0.859654
36.100000 -0.872856 -0.859655
36.150000 -0.880952 -0.859656
36.200000 -0.888431 -0.859657
36.250000 -0.895109 -0.859658
36.300000 -0.900823 -0.859659
36.350000 -0.905436 -0.859660
36.400000 -0.908842 -0.859661
36.450000 -0.910966 -0.859662
36.500000 -0.911764 -0.859663
36.550000 -0.911229 -0.859664
36.600000 -0.909388 -0.859665
36.650000 -0.906298 -0.859666
36.700000 -0.902051 -0.859667
36.750000 -0.896766 -0.859667
36.800000 -0.890585 -0.859668
36.850000 -0.883676 -0.859669
36.900000 -0.876220 -0.859670
36.950000 -0.868413 -0.859671
37.000000 -0.860455 -0.859671
37.050000 -0.852552 -0.859672
37.100000 -0.844903 -0.859673
37.150000 -0.837701 -0.859674
37.200000 -0.831126 -0.859674
37.250000 -0.825337 -0.859675
37.300000 -0.820476 -0.859676
37.350000 -0.816658 -0.859676
37.400000 -0.813969 -0.859677
37.450000 -0.812468 -0.859678
37.500000 -0.812182 -0.859678
