fit_time[ns] Functional_fit[mV] Thermal_fit[mV]
3.650000 9.650979 9.123649
3.700000 9.585590 8.970766
3.750000 9.507230 8.820533
3.800000 9.414534 8.672902
3.850000 9.306548 8.527823
3.900000 9.182740 8.385249
3.950000 9.043003 8.245135
4.000000 8.887646 8.107435
4.050000 8.717381 7.972105
4.100000 8.533296 7.839100
4.150000 8.336822 7.708378
4.200000 8.129692 7.579897
4.250000 7.913898 7.453617
4.300000 7.691638 7.329497
4.350000 7.465259 7.207498
4.400000 7.237205 7.087582
4.450000 7.009955 6.969709
4.500000 6.785969 6.853844
4.550000 6.567627 6.739950
4.600000 6.357181 6.627992
4.650000 6.156704 6.517934
4.700000 5.968044 6.409743
4.750000 5.792788 6.303384
4.800000 5.632232 6.198825
4.850000 5.487352 6.096034
4.900000 5.358793 5.994979
4.950000 5.246857 5.895629
5.000000 5.151502 5.797954
5.050000 5.072350 5.701923
5.100000 5.008704 5.607508
5.150000 4.959563 5.514680
5.200000 4.923658 5.423410
5.250000 4.899480 5.333671
5.300000 4.885316 5.245437
5.350000 4.879301 5.158680
5.400000 4.879450 5.073374
5.450000 4.883715 4.989495
5.500000 4.890026 4.907016
5.550000 4.896339 4.825913
5.600000 4.900683 4.746163
5.650000 4.901200 4.667740
5.700000 4.896186 4.590623
5.750000 4.884122 4.514788
5.800000 4.863713 4.440213
5.850000 4.833901 4.366877
5.900000 4.793894 4.294756
5.950000 4.743169 4.223831
6.000000 4.681485 4.154081
6.050000 4.608881 4.085484
6.100000 4.525666 4.018022
6.150000 4.432408 3.951675
6.200000 4.329917 3.886422
6.250000 4.219220 3.822247
6.300000 4.101533 3.759129
6.350000 3.978230 3.697050
6.400000 3.850808 3.635994
6.450000 3.720850 3.575941
6.500000 3.589990 3.516876
6.550000 3.459869 3.458780
6.600000 3.332102 3.401638
6.650000 3.208241 3.345433
6.700000 3.089740 3.290149
6.750000 2.977923 3.235771
6.800000 2.873959 3.182282
6.850000 2.778834 3.129668
6.900000 2.693337 3.077914
6.950000 2.618041 3.027006
7.000000 2.553299 2.976928
7.050000 2.499234 2.927667
7.100000 2.455747 2.879208
7.150000 2.422517 2.831539
7.200000 2.399019 2.784647
7.250000 2.384533 2.738516
7.300000 2.378167 2.693136
7.350000 2.378883 2.648494
7.400000 2.385517 2.604576
7.450000 2.396812 2.561370
7.500000 2.411446 2.518866
7.550000 2.428066 2.477050
7.600000 2.445313 2.435911
7.650000 2.461857 2.395439
7.700000 2.476428 2.355621
7.750000 2.487836 2.316447
7.800000 2.495004 2.277906
7.850000 2.496985 2.239988
7.900000 2.492982 2.202682
7.950000 2.482363 2.165977
8.000000 2.464671 2.129864
8.050000 2.439633 2.094333
8.100000 2.407158 2.059374
8.150000 2.367339 2.024978
8.200000 2.320446 1.991135
8.250000 2.266916 1.957837
8.300000 2.207338 1.925073
8.350000 2.142440 1.892836
8.400000 2.073067 1.861116
8.450000 2.000160 1.829905
8.500000 1.924732 1.799194
8.550000 1.847845 1.768976
8.600000 1.770584 1.739242
8.650000 1.694031 1.709983
8.700000 1.619244 1.681193
8.750000 1.547227 1.652864
8.800000 1.478914 1.624987
8.850000 1.415147 1.597556
8.900000 1.356659 1.570563
8.950000 1.304057 1.544001
9.000000 1.257816 1.517862
9.050000 1.218264 1.492141
9.100000 1.185584 1.466829
9.150000 1.159806 1.441921
9.200000 1.140817 1.417409
9.250000 1.128357 1.393287
9.300000 1.122035 1.369550
9.350000 1.121339 1.346190
9.400000 1.125644 1.323201
9.450000 1.134239 1.300577
9.500000 1.146332 1.278313
9.550000 1.161081 1.256402
9.600000 1.177605 1.234838
9.650000 1.195010 1.213617
9.700000 1.212408 1.192732
9.750000 1.228934 1.172178
9.800000 1.243770 1.151950
9.850000 1.256157 1.132042
9.900000 1.265416 1.112449
9.950000 1.270958 1.093166
10.000000 1.272297 1.074187
10.050000 1.269058 1.055509
10.100000 1.260984 1.037126
10.150000 1.247938 1.019033
10.200000 1.229907 1.001226
10.250000 1.206995 0.983700
10.300000 1.179421 0.966450
10.350000 1.147512 0.949472
10.400000 1.111691 0.932762
10.450000 1.072470 0.916315
10.500000 1.030431 0.900127
10.550000 0.986214 0.884194
10.600000 0.940503 0.868512
10.650000 0.894007 0.853076
10.700000 0.847443 0.837883
10.750000 0.801523 0.822929
10.800000 0.756935 0.808210
10.850000 0.714328 0.793722
10.900000 0.674298 0.779462
10.950000 0.637378 0.765425
11.000000 0.604024 0.751609
11.050000 0.574608 0.738009
11.100000 0.549410 0.724622
11.150000 0.528614 0.711446
11.200000 0.512305 0.698475
11.250000 0.500472 0.685708
11.300000 0.493006 0.673141
11.350000 0.489704 0.660770
11.400000 0.490282 0.648593
11.450000 0.494374 0.636606
11.500000 0.501549 0.624807
11.550000 0.511317 0.613192
11.600000 0.523145 0.601759
11.650000 0.536467 0.590504
11.700000 0.550699 0.579425
11.750000 0.565252 0.568519
11.800000 0.579546 0.557783
11.850000 0.593019 0.547214
11.900000 0.605147 0.536810
11.950000 0.615447 0.526569
12.000000 0.623492 0.516487
12.050000 0.628917 0.506562
12.100000 0.631430 0.496791
12.150000 0.630809 0.487173
12.200000 0.626914 0.477704
12.250000 0.619686 0.468383
12.300000 0.609143 0.459206
12.350000 0.595382 0.450173
12.400000 0.578575 0.441279
12.450000 0.558960 0.432524
12.500000 0.536840 0.423905
12.550000 0.512570 0.415420
12.600000 0.486548 0.407066
12.650000 0.459211 0.398842
12.700000 0.431015 0.390746
12.750000 0.402433 0.382775
12.800000 0.373939 0.374928
12.850000 0.345997 0.367202
12.900000 0.319054 0.359596
12.950000 0.293528 0.352108
13.000000 0.269798 0.344736
13.050000 0.248199 0.337478
13.100000 0.229013 0.330333
13.150000 0.212466 0.323297
13.200000 0.198719 0.316371
13.250000 0.187872 0.309552
13.300000 0.179960 0.302839
13.350000 0.174951 0.296229
13.400000 0.172753 0.289721
13.450000 0.173213 0.283314
13.500000 0.176123 0.277006
13.550000 0.181227 0.270795
13.600000 0.188226 0.264680
13.650000 0.196788 0.258659
13.700000 0.206552 0.252731
13.750000 0.217140 0.246895
13.800000 0.228165 0.241149
13.850000 0.239240 0.235491
13.900000 0.249986 0.229920
13.950000 0.260042 0.224436
14.000000 0.269070 0.219036
14.050000 0.276765 0.213718
14.100000 0.282861 0.208483
14.150000 0.287132 0.203329
14.200000 0.289403 0.198253
14.250000 0.289547 0.193256
14.300000 0.287490 0.188336
14.350000 0.283213 0.183491
14.400000 0.276746 0.178721
14.450000 0.268171 0.174024
14.500000 0.257618 0.169399
14.550000 0.245260 0.164845
14.600000 0.231310 0.160362
14.650000 0.216013 0.155947
14.700000 0.199643 0.151599
14.750000 0.182491 0.147319
14.800000 0.164866 0.143104
14.850000 0.147079 0.138954
14.900000 0.129442 0.134868
14.950000 0.112258 0.130844
15.000000 0.095816 0.126882
15.050000 0.080384 0.122980
15.100000 0.066203 0.119138
15.150000 0.053480 0.115356
15.200000 0.042391 0.111631
15.250000 0.033069 0.107963
15.300000 0.025606 0.104351
15.350000 0.020055 0.100795
15.400000 0.016421 0.097293
15.450000 0.014671 0.093844
15.500000 0.014728 0.090449
15.550000 0.016480 0.087105
15.600000 0.019777 0.083812
15.650000 0.024442 0.080570
15.700000 0.030267 0.077377
15.750000 0.037027 0.074233
15.800000 0.044479 0.071137
15.850000 0.052372 0.068088
15.900000 0.060451 0.065086
15.950000 0.068460 0.062130
16.000000 0.076155 0.059218
16.050000 0.083301 0.056352
16.100000 0.089684 0.053529
16.150000 0.095111 0.050749
16.200000 0.099416 0.048011
16.250000 0.102461 0.045315
16.300000 0.104144 0.042660
16.350000 0.104391 0.040046
16.400000 0.103168 0.037471
16.450000 0.100474 0.034936
16.500000 0.096340 0.032439
16.550000 0.090833 0.029981
16.600000 0.084049 0.027559
16.650000 0.076112 0.025175
16.700000 0.067171 0.022827
16.750000 0.057394 0.020515
16.800000 0.046966 0.018237
16.850000 0.036086 0.015995
16.900000 0.024957 0.013786
16.950000 0.013785 0.011612
17.000000 0.002776 0.009470
17.050000 -0.007875 0.007361
17.100000 -0.017979 0.005283
17.150000 -0.027368 0.003238
17.200000 -0.035889 0.001223
17.250000 -0.043412 -0.000761
17.300000 -0.049832 -0.002715
17.350000 -0.055069 -0.004639
17.400000 -0.059072 -0.006534
17.450000 -0.061818 -0.008400
17.500000 -0.063311 -0.010238
17.550000 -0.063584 -0.012048
17.600000 -0.062696 -0.013831
17.650000 -0.060729 -0.015586
17.700000 -0.057790 -0.017315
17.750000 -0.054002 -0.019018
17.800000 -0.049507 -0.020695
17.850000 -0.044458 -0.022347
17.900000 -0.039017 -0.023973
17.950000 -0.033351 -0.025575
18.000000 -0.027629 -0.027153
18.050000 -0.022017 -0.028706
18.100000 -0.016674 -0.030236
18.150000 -0.011751 -0.031744
18.200000 -0.007384 -0.033228
18.250000 -0.003694 -0.034689
18.300000 -0.000784 -0.036129
18.350000 0.001263 -0.037547
18.400000 0.002386 -0.038943
18.450000 0.002547 -0.040319
18.500000 0.001729 -0.041673
18.550000 -0.000059 -0.043007
18.600000 -0.002788 -0.044321
18.650000 -0.006408 -0.045615
18.700000 -0.010848 -0.046890
18.750000 -0.016021 -0.048145
18.800000 -0.021822 -0.049381
18.850000 -0.028137 -0.050599
18.900000 -0.034841 -0.051798
18.950000 -0.041800 -0.052979
19.000000 -0.048880 -0.054142
19.050000 -0.055944 -0.055288
19.100000 -0.062859 -0.056416
19.150000 -0.069496 -0.057528
19.200000 -0.075737 -0.058622
19.250000 -0.081474 -0.059700
19.300000 -0.086609 -0.060762
19.350000 -0.091064 -0.061808
19.400000 -0.094775 -0.062838
19.450000 -0.097696 -0.063853
19.500000 -0.099799 -0.064852
19.550000 -0.101076 -0.065836
19.600000 -0.101536 -0.066806
19.650000 -0.101206 -0.067760
19.700000 -0.100132 -0.068701
19.750000 -0.098374 -0.069627
19.800000 -0.096006 -0.070539
19.850000 -0.093113 -0.071438
19.900000 -0.089792 -0.072323
19.950000 -0.086146 -0.073194
20.000000 -0.082285 -0.074053
20.050000 -0.078317 -0.074899
20.100000 -0.074355 -0.075732
20.150000 -0.070507 -0.076552
20.200000 -0.066875 -0.077360
20.250000 -0.063555 -0.078156
20.300000 -0.060635 -0.078940
20.350000 -0.058190 -0.079712
20.400000 -0.056284 -0.080473
20.450000 -0.054965 -0.081222
20.500000 -0.054269 -0.081960
20.550000 -0.054216 -0.082686
20.600000 -0.054811 -0.083402
20.650000 -0.056043 -0.084107
20.700000 -0.057889 -0.084802
20.750000 -0.060309 -0.085486
20.800000 -0.063253 -0.086160
20.850000 -0.066660 -0.086823
20.900000 -0.070458 -0.087477
20.950000 -0.074569 -0.088121
21.000000 -0.078907 -0.088755
21.050000 -0.083385 -0.089380
21.100000 -0.087913 -0.089996
21.150000 -0.092401 -0.090602
21.200000 -0.096763 -0.091199
21.250000 -0.100916 -0.091787
21.300000 -0.104783 -0.092366
21.350000 -0.108295 -0.092937
21.400000 -0.111394 -0.093499
21.450000 -0.114030 -0.094052
21.500000 -0.116165 -0.094598
21.550000 -0.117773 -0.095135
21.600000 -0.118841 -0.095664
21.650000 -0.119366 -0.096185
21.700000 -0.119359 -0.096698
21.750000 -0.118844 -0.097204
21.800000 -0.117852 -0.097702
21.850000 -0.116427 -0.098193
21.900000 -0.114620 -0.098676
21.950000 -0.112491 -0.099152
22.000000 -0.110106 -0.099621
22.050000 -0.107533 -0.100083
22.100000 -0.104845 -0.100538
22.150000 -0.102115 -0.100986
22.200000 -0.099415 -0.101428
22.250000 -0.096817 -0.101863
22.300000 -0.094386 -0.102291
22.350000 -0.092184 -0.102713
22.400000 -0.090266 -0.103129
22.450000 -0.088678 -0.103538
22.500000 -0.087459 -0.103941
22.550000 -0.086639 -0.104339
22.600000 -0.086237 -0.104730
22.650000 -0.086262 -0.105116
22.700000 -0.086715 -0.105495
22.750000 -0.087585 -0.105869
22.800000 -0.088852 -0.106238
22.850000 -0.090489 -0.106601
22.900000 -0.092460 -0.106959
22.950000 -0.094721 -0.107311
23.000000 -0.097223 -0.107658
23.050000 -0.099913 -0.108000
23.100000 -0.102734 -0.108336
23.150000 -0.105628 -0.108668
23.200000 -0.108534 -0.108995
23.250000 -0.111395 -0.109316
23.300000 -0.114154 -0.109633
23.350000 -0.116758 -0.109946
23.400000 -0.119158 -0.110253
23.450000 -0.121311 -0.110556
23.500000 -0.123179 -0.110855
23.550000 -0.124734 -0.111149
23.600000 -0.125952 -0.111439
23.650000 -0.126820 -0.111724
23.700000 -0.127331 -0.112005
23.750000 -0.127487 -0.112282
23.800000 -0.127298 -0.112555
23.850000 -0.126781 -0.112824
23.900000 -0.125960 -0.113088
23.950000 -0.124865 -0.113349
24.000000 -0.123534 -0.113606
24.050000 -0.122006 -0.113859
24.100000 -0.120325 -0.114109
24.150000 -0.118538 -0.114354
24.200000 -0.116694 -0.114596
24.250000 -0.114839 -0.114834
24.300000 -0.113023 -0.115069
24.350000 -0.111289 -0.115301
24.400000 -0.109682 -0.115528
24.450000 -0.108240 -0.115753
24.500000 -0.106997 -0.115974
24.550000 -0.105983 -0.116192
24.600000 -0.105221 -0.116406
24.650000 -0.104727 -0.116618
24.700000 -0.104513 -0.116826
24.750000 -0.104582 -0.117031
24.800000 -0.104932 -0.117233
24.850000 -0.105554 -0.117432
24.900000 -0.106434 -0.117628
24.950000 -0.107549 -0.117822
25.000000 -0.108876 -0.118012
25.050000 -0.110383 -0.118200
25.100000 -0.112039 -0.118384
25.150000 -0.113806 -0.118566
25.200000 -0.115646 -0.118746
25.250000 -0.117521 -0.118922
25.300000 -0.119391 -0.119096
25.350000 -0.121218 -0.119268
25.400000 -0.122967 -0.119436
25.450000 -0.124601 -0.119603
25.500000 -0.126091 -0.119767
25.550000 -0.127410 -0.119928
25.600000 -0.128534 -0.120087
25.650000 -0.129446 -0.120244
25.700000 -0.130132 -0.120398
25.750000 -0.130586 -0.120550
25.800000 -0.130805 -0.120700
25.850000 -0.130792 -0.120848
25.900000 -0.130556 -0.120993
25.950000 -0.130108 -0.121136
26.000000 -0.129468 -0.121277
26.050000 -0.128656 -0.121416
26.100000 -0.127697 -0.121553
26.150000 -0.126619 -0.121688
26.200000 -0.125452 -0.121821
26.250000 -0.124226 -0.121952
26.300000 -0.122974 -0.122081
26.350000 -0.121727 -0.122208
26.400000 -0.120517 -0.122334
26.450000 -0.119371 -0.122457
26.500000 -0.118319 -0.122578
26.550000 -0.117385 -0.122698
26.600000 -0.116590 -0.122816
26.650000 -0.115951 -0.122932
26.700000 -0.115484 -0.123047
26.750000 -0.115197 -0.123160
26.800000 -0.115097 -0.123271
26.850000 -0.115183 -0.123380
26.900000 -0.115454 -0.123488
26.950000 -0.115902 -0.123594
27.000000 -0.116514 -0.123699
27.050000 -0.117278 -0.123802
27.100000 -0.118174 -0.123904
27.150000 -0.119183 -0.124004
27.200000 -0.120281 -0.124102
27.250000 -0.121444 -0.124199
27.300000 -0.122647 -0.124295
27.350000 -0.123863 -0.124390
27.400000 -0.125068 -0.124482
27.450000 -0.126237 -0.124574
27.500000 -0.127345 -0.124664
27.550000 -0.128371 -0.124753
27.600000 -0.129295 -0.124840
27.650000 -0.130101 -0.124927
27.700000 -0.130775 -0.125012
27.750000 -0.131305 -0.125095
27.800000 -0.131685 -0.125178
27.850000 -0.131911 -0.125259
27.900000 -0.131983 -0.125339
27.950000 -0.131903 -0.125418
28.000000 -0.131679 -0.125496
28.050000 -0.131320 -0.125572
28.100000 -0.130839 -0.125648
28.150000 -0.130250 -0.125722
28.200000 -0.129571 -0.125795
28.250000 -0.128821 -0.125867
28.300000 -0.128019 -0.125938
28.350000 -0.127186 -0.126008
28.400000 -0.126343 -0.126077
28.450000 -0.125512 -0.126145
28.500000 -0.124711 -0.126212
28.550000 -0.123961 -0.126278
28.600000 -0.123278 -0.126343
28.650000 -0.122678 -0.126407
28.700000 -0.122175 -0.126470
28.750000 -0.121779 -0.126532
28.800000 -0.121499 -0.126593
28.850000 -0.121339 -0.126654
28.900000 -0.121303 -0.126713
28.950000 -0.121390 -0.126772
29.000000 -0.121598 -0.126829
29.050000 -0.121920 -0.126886
29.100000 -0.122348 -0.126942
29.150000 -0.122871 -0.126997
29.200000 -0.123478 -0.127052
29.250000 -0.124154 -0.127105
29.300000 -0.124883 -0.127158
29.350000 -0.125649 -0.127210
29.400000 -0.126436 -0.127261
29.450000 -0.127226 -0.127312
29.500000 -0.128003 -0.127362
29.550000 -0.128750 -0.127410
29.600000 -0.129453 -0.127459
29.650000 -0.130096 -0.127506
29.700000 -0.130669 -0.127553
29.750000 -0.131160 -0.127599
29.800000 -0.131561 -0.127645
29.850000 -0.131866 -0.127690
29.900000 -0.132071 -0.127734
29.950000 -0.132174 -0.127777
30.000000 -0.132176 -0.127820
30.050000 -0.132079 -0.127862
30.100000 -0.131890 -0.127904
30.150000 -0.131614 -0.127945
30.200000 -0.131261 -0.127985
30.250000 -0.130842 -0.128025
30.300000 -0.130367 -0.128064
30.350000 -0.129850 -0.128103
30.400000 -0.129303 -0.128141
30.450000 -0.128742 -0.128178
30.500000 -0.128179 -0.128215
30.550000 -0.127628 -0.128252
30.600000 -0.127103 -0.128288
30.650000 -0.126614 -0.128323
30.700000 -0.126175 -0.128358
30.750000 -0.125793 -0.128392
30.800000 -0.125478 -0.128426
30.850000 -0.125236 -0.128459
30.900000 -0.125071 -0.128492
30.950000 -0.124988 -0.128524
31.000000 -0.124986 -0.128556
31.050000 -0.125065 -0.128588
31.100000 -0.125222 -0.128619
31.150000 -0.125453 -0.128649
31.200000 -0.125751 -0.128679
31.250000 -0.126111 -0.128709
31.300000 -0.126521 -0.128738
31.350000 -0.126974 -0.128766
31.400000 -0.127459 -0.128795
31.450000 -0.127964 -0.128823
31.500000 -0.128479 -0.128850
31.550000 -0.128992 -0.128877
31.600000 -0.129493 -0.128904
31.650000 -0.129970 -0.128930
31.700000 -0.130415 -0.128956
31.750000 -0.130818 -0.128981
31.800000 -0.131172 -0.129007
31.850000 -0.131470 -0.129031
31.900000 -0.131707 -0.129056
31.950000 -0.131879 -0.129080
32.000000 -0.131985 -0.129103
32.050000 -0.132024 -0.129127
32.100000 -0.131997 -0.129150
32.150000 -0.131906 -0.129172
32.200000 -0.131756 -0.129195
32.250000 -0.131550 -0.129217
32.300000 -0.131296 -0.129238
32.350000 -0.131001 -0.129260
32.400000 -0.130672 -0.129281
32.450000 -0.130319 -0.129302
32.500000 -0.129949 -0.129322
32.550000 -0.129573 -0.129342
32.600000 -0.129199 -0.129362
32.650000 -0.128837 -0.129381
32.700000 -0.128494 -0.129401
32.750000 -0.128178 -0.129420
32.800000 -0.127897 -0.129438
32.850000 -0.127656 -0.129457
32.900000 -0.127461 -0.129475
32.950000 -0.127315 -0.129493
33.000000 -0.127221 -0.129510
33.050000 -0.127181 -0.129528
33.100000 -0.127195 -0.129545
33.150000 -0.127262 -0.129562
33.200000 -0.127380 -0.129578
33.250000 -0.127545 -0.129595
33.300000 -0.127753 -0.129611
33.350000 -0.127999 -0.129627
33.400000 -0.128277 -0.129642
33.450000 -0.128581 -0.129658
33.500000 -0.128902 -0.129673
33.550000 -0.129235 -0.129688
33.600000 -0.129572 -0.129703
33.650000 -0.129905 -0.129717
33.700000 -0.130228 -0.129732
33.750000 -0.130532 -0.129746
33.800000 -0.130813 -0.129760
33.850000 -0.131065 -0.129773
33.900000 -0.131283 -0.129787
33.950000 -0.131463 -0.129800
34.000000 -0.131601 -0.129813
34.050000 -0.131697 -0.129826
34.100000 -0.131748 -0.129839
34.150000 -0.131755 -0.129851
34.200000 -0.131720 -0.129864
34.250000 -0.131643 -0.129876
34.300000 -0.131527 -0.129888
34.350000 -0.131378 -0.129900
34.400000 -0.131197 -0.129911
34.450000 -0.130992 -0.129923
34.500000 -0.130766 -0.129934
34.550000 -0.130526 -0.129945
34.600000 -0.130277 -0.129956
34.650000 -0.130027 -0.129967
34.700000 -0.129780 -0.129978
34.750000 -0.129542 -0.129988
34.800000 -0.129320 -0.129999
34.850000 -0.129117 -0.130009
34.900000 -0.128938 -0.130019
34.950000 -0.128788 -0.130029
35.000000 -0.128668 -0.130039
35.050000 -0.128582 -0.130048
35.100000 -0.128530 -0.130058
35.150000 -0.128515 -0.130067
35.200000 -0.128534 -0.130076
35.250000 -0.128588 -0.130085
35.300000 -0.128675 -0.130094
35.350000 -0.128793 -0.130103
35.400000 -0.128937 -0.130112
35.450000 -0.129106 -0.130120
35.500000 -0.129294 -0.130129
35.550000 -0.129497 -0.130137
35.600000 -0.129711 -0.130145
35.650000 -0.129930 -0.130153
35.700000 -0.130150 -0.130161
35.750000 -0.130366 -0.130169
35.800000 -0.130573 -0.130177
35.850000 -0.130767 -0.130184
35.900000 -0.130945 -0.130192
35.950000 -0.131101 -0.130199
36.000000 -0.131235 -0.130206
36.050000 -0.131342 -0.130213
36.100000 -0.131422 -0.130220
36.150000 -0.131473 -0.130227
36.200000 -0.131495 -0.130234
36.250000 -0.131489 -0.130241
36.300000 -0.131454 -0.130248
36.350000 -0.131392 -0.130254
36.400000 -0.131307 -0.130261
36.450000 -0.131199 -0.130267
36.500000 -0.131072 -0.130273
36.550000 -0.130930 -0.130280
36.600000 -0.130776 -0.130286
36.650000 -0.130614 -0.130292
36.700000 -0.130448 -0.130298
36.750000 -0.130282 -0.130303
36.800000 -0.130120 -0.130309
36.850000 -0.129965 -0.130315
36.900000 -0.129821 -0.130320
36.950000 -0.129691 -0.130326
37.000000 -0.129579 -0.130331
37.050000 -0.129485 -0.130337
37.100000 -0.129413 -0.130342
37.150000 -0.129363 -0.130347
37.200000 -0.129336 -0.130352
37.250000 -0.129333 -0.130357
37.300000 -0.129353 -0.130362
37.350000 -0.129396 -0.130367
37.400000 -0.129459 -0.130372
37.450000 -0.129542 -0.130376
37.500000 -0.129642 -0.130381
37.550000 -0.129757 -0.130386
37.600000 -0.129884 -0.130390
37.650000 -0.130020 -0.130395
37.700000 -0.130162 -0.130399
37.750000 -0.130306 -0.130404
37.800000 -0.130450 -0.130408
37.850000 -0.130589 -0.130412
37.900000 -0.130722 -0.130416
37.950000 -0.130846 -0.130420
