time[ns] Raw_signal[mV]
-11.100000 -0.400830
-11.050000 -0.417959
-11.000000 -0.393978
-10.950000 -0.349441
-10.900000 -0.315182
-10.850000 -0.277498
-10.800000 -0.212406
-10.750000 -0.140462
-10.700000 -0.089074
-10.650000 -0.034260
-10.600000 0.044536
-10.550000 0.113054
-10.500000 0.147313
-10.450000 0.191849
-10.400000 0.277497
-10.350000 0.352866
-10.300000 0.393977
-10.250000 0.431662
-10.200000 0.479625
-10.150000 0.517309
-10.100000 0.507032
-10.050000 0.462495
-10.000000 0.414533
-9.950000 0.363144
-9.900000 0.263793
-9.850000 0.133609
-9.800000 0.017129
-9.750000 -0.075370
-9.700000 -0.178147
-9.650000 -0.287775
-9.600000 -0.380274
-9.550000 -0.445366
-9.500000 -0.459070
-9.450000 -0.435088
-9.400000 -0.393978
-9.350000 -0.325459
-9.300000 -0.226109
-9.250000 -0.123332
-9.200000 -0.017130
-9.150000 0.085647
-9.100000 0.150739
-9.050000 0.181572
-9.000000 0.215831
-8.950000 0.226109
-8.900000 0.164443
-8.850000 0.082221
-8.800000 0.030833
-8.750000 -0.020556
-8.700000 -0.099351
-8.650000 -0.150739
-8.600000 -0.143887
-8.550000 -0.116481
-8.500000 -0.071944
-8.450000 0.013703
-8.400000 0.113054
-8.350000 0.202127
-8.300000 0.291200
-8.250000 0.380274
-8.200000 0.445366
-8.150000 0.459069
-8.100000 0.435088
-8.050000 0.393977
-8.000000 0.325459
-7.950000 0.215831
-7.900000 0.068518
-7.850000 -0.102777
-7.800000 -0.277498
-7.750000 -0.435089
-7.700000 -0.551569
-7.650000 -0.626938
-7.600000 -0.664623
-7.550000 -0.633790
-7.500000 -0.531013
-7.450000 -0.390552
-7.400000 -0.236387
-7.350000 -0.054815
-7.300000 0.130183
-7.250000 0.270645
-7.200000 0.363144
-7.150000 0.448792
-7.100000 0.507032
-7.050000 0.483050
-7.000000 0.393977
-6.950000 0.298053
-6.900000 0.184998
-6.850000 0.034259
-6.800000 -0.102777
-6.750000 -0.161017
-6.700000 -0.181573
-6.650000 -0.195276
-6.600000 -0.157591
-6.550000 -0.054815
-6.500000 0.044536
-6.450000 0.140462
-6.400000 0.263793
-6.350000 0.380274
-6.300000 0.438513
-6.250000 0.476198
-6.200000 0.513883
-6.150000 0.510457
-6.100000 0.435087
-6.050000 0.332311
-6.000000 0.222683
-5.950000 0.102776
-5.900000 -0.023981
-5.850000 -0.147313
-5.800000 -0.274071
-5.750000 -0.387126
-5.700000 -0.469348
-5.650000 -0.524162
-5.600000 -0.551568
-5.550000 -0.537865
-5.500000 -0.503606
-5.450000 -0.462496
-5.400000 -0.383700
-5.350000 -0.263793
-5.300000 -0.130184
-5.250000 -0.017130
-5.200000 0.092499
-5.150000 0.226108
-5.100000 0.363144
-5.050000 0.452218
-5.000000 0.517309
-4.950000 0.572123
-4.900000 0.602957
-4.850000 0.592679
-4.800000 0.565272
-4.750000 0.537864
-4.700000 0.510457
-4.650000 0.500179
-4.600000 0.500180
-4.550000 0.500179
-4.500000 0.503605
-4.450000 0.548143
-4.400000 0.620085
-4.350000 0.685178
-4.300000 0.716011
-4.250000 0.733140
-4.200000 0.726288
-4.150000 0.688604
-4.100000 0.623512
-4.050000 0.558420
-4.000000 0.489902
-3.950000 0.383700
-3.900000 0.256941
-3.850000 0.164443
-3.800000 0.126758
-3.750000 0.109628
-3.700000 0.102776
-3.650000 0.133609
-3.600000 0.195275
-3.550000 0.246664
-3.500000 0.291201
-3.450000 0.346015
-3.400000 0.366570
-3.350000 0.359718
-3.300000 0.376848
-3.250000 0.346014
-3.200000 0.215830
-3.150000 0.150739
-3.100000 0.226109
-3.050000 0.229534
-3.000000 0.147313
-2.950000 0.215831
-2.900000 0.369996
-2.850000 0.359718
-2.800000 0.325459
-2.750000 0.417958
-2.700000 0.438513
-2.650000 0.411106
-2.600000 0.589253
-2.550000 0.760547
-2.500000 0.657771
-2.450000 0.602957
-2.400000 0.767399
-2.350000 0.808510
-2.300000 0.695456
-2.250000 0.784529
-2.200000 0.935268
-2.150000 0.859898
-2.100000 0.839343
-2.050000 1.014063
-2.000000 1.017489
-1.950000 0.774251
-1.900000 0.596104
-1.850000 0.534439
-1.800000 0.476199
-1.750000 0.424810
-1.700000 0.274071
-1.650000 -0.054815
-1.600000 -0.277498
-1.550000 -0.318608
-1.500000 -0.476199
-1.450000 -0.671475
-1.400000 -0.572124
-1.350000 -0.335737
-1.300000 -0.253516
-1.250000 -0.195276
-1.200000 -0.075369
-1.150000 0.000000
-1.100000 0.157590
-1.050000 0.459069
-1.000000 0.493328
-0.950000 0.232960
-0.900000 0.174720
-0.850000 0.311756
-0.800000 0.239812
-0.750000 0.095924
-0.700000 0.154165
-0.650000 0.171294
-0.600000 0.044537
-0.550000 0.051388
-0.500000 0.171294
-0.450000 0.171294
-0.400000 0.161017
-0.350000 0.270645
-0.300000 0.335737
-0.250000 0.298052
-0.200000 0.284349
-0.150000 0.287775
-0.100000 0.236386
-0.050000 0.167869
0.000000 0.123332
0.050000 0.092499
0.100000 0.065092
0.150000 -0.044537
0.200000 -0.215831
0.250000 -0.277497
0.300000 -0.239813
0.350000 -0.346015
0.400000 -0.551568
0.450000 -0.558420
0.500000 -0.435089
0.550000 -0.421385
0.600000 -0.407681
0.650000 -0.256942
0.700000 -0.147313
0.750000 -0.126758
0.800000 -0.017130
0.850000 0.195275
0.900000 0.424810
0.950000 0.750269
1.000000 1.284708
1.050000 2.014423
1.100000 2.977098
1.150000 4.316622
1.200000 6.084380
1.250000 8.242689
1.300000 10.794983
1.350000 13.775507
1.400000 17.102039
1.450000 20.596453
1.500000 24.162804
1.550000 27.818229
1.600000 31.545592
1.650000 35.149635
1.700000 38.513852
1.750000 41.675955
1.800000 44.653055
1.850000 47.325245
1.900000 49.627445
1.950000 51.662415
2.000000 53.471295
2.050000 54.954705
2.100000 56.044135
2.150000 56.777275
2.200000 57.157555
2.250000 57.143845
2.300000 56.681355
2.350000 55.766635
2.400000 54.440815
2.450000 52.758705
2.500000 50.744285
2.550000 48.424955
2.600000 45.872675
2.650000 43.107975
2.700000 40.182265
2.750000 37.249695
2.800000 34.416495
2.850000 31.603835
2.900000 28.845995
2.950000 26.324545
3.000000 24.087435
3.050000 22.066155
3.100000 20.332659
3.150000 18.976003
3.200000 17.931105
3.250000 17.177408
3.300000 16.773159
3.350000 16.690933
3.400000 16.817693
3.450000 17.136301
3.500000 17.660462
3.550000 18.355916
3.600000 19.130167
3.650000 19.911275
3.700000 20.671825
3.750000 21.391259
3.800000 22.028474
3.850000 22.562915
3.900000 22.980871
3.950000 23.237817
4.000000 23.309756
4.050000 23.230965
4.100000 23.018556
4.150000 22.604024
4.200000 21.997642
4.250000 21.278199
4.300000 20.449142
4.350000 19.465910
4.400000 18.352490
4.450000 17.191115
4.500000 15.995481
4.550000 14.779290
4.600000 13.566524
4.650000 12.412000
4.700000 11.339696
4.750000 10.349614
4.800000 9.458882
4.850000 8.736020
4.900000 8.181026
4.950000 7.735660
5.000000 7.386219
5.050000 7.187517
5.100000 7.108722
5.150000 7.077888
5.200000 7.125852
5.250000 7.259461
5.300000 7.434181
5.350000 7.646586
5.400000 7.948064
5.450000 8.290650
5.500000 8.609259
5.550000 8.948424
5.600000 9.345829
5.650000 9.719248
5.700000 10.017303
5.750000 10.281097
5.800000 10.462670
5.850000 10.514056
5.900000 10.469523
5.950000 10.349614
6.000000 10.102950
6.050000 9.763786
6.100000 9.349254
6.150000 8.842222
6.200000 8.300932
6.250000 7.759641
6.300000 7.166962
6.350000 6.526321
6.400000 5.974753
6.450000 5.505405
6.500000 4.998373
6.550000 4.477638
6.600000 4.025421
6.650000 3.641721
6.700000 3.261447
6.750000 2.908581
6.800000 2.658490
6.850000 2.504325
6.900000 2.374141
6.950000 2.274790
7.000000 2.278217
7.050000 2.377568
7.100000 2.490621
7.150000 2.627657
7.200000 2.857192
7.250000 3.103856
7.300000 3.312836
7.350000 3.542370
7.400000 3.795885
7.450000 3.987736
7.500000 4.090512
7.550000 4.162456
7.600000 4.213844
7.650000 4.200141
7.700000 4.117920
7.750000 3.970606
7.800000 3.789034
7.850000 3.597185
7.900000 3.374502
7.950000 3.117559
8.000000 2.867470
8.050000 2.672194
8.100000 2.483770
8.150000 2.298772
8.200000 2.141182
8.250000 2.024701
8.300000 1.925350
8.350000 1.839703
8.400000 1.771185
8.450000 1.723222
8.500000 1.658131
8.550000 1.565631
8.600000 1.445725
8.650000 1.325819
8.700000 1.212765
8.750000 1.109988
8.800000 1.024341
8.850000 0.959249
8.900000 0.911286
8.950000 0.873602
9.000000 0.839343
9.050000 0.815361
9.100000 0.794807
9.150000 0.763973
9.200000 0.746844
9.250000 0.787954
9.300000 0.866749
9.350000 0.928416
9.400000 1.000360
9.450000 1.092859
9.500000 1.178506
9.550000 1.240172
9.600000 1.301838
9.650000 1.366930
9.700000 1.387485
9.750000 1.370356
9.800000 1.329245
9.850000 1.236747
9.900000 1.079155
9.950000 0.924990
10.000000 0.801658
10.050000 0.685178
10.100000 0.592678
10.150000 0.578975
10.200000 0.616660
10.250000 0.678326
10.300000 0.767399
10.350000 0.856472
10.400000 0.911287
10.450000 0.924990
10.500000 0.911287
10.550000 0.846194
10.600000 0.736566
10.650000 0.630363
10.700000 0.496754
10.750000 0.325459
10.800000 0.191849
10.850000 0.113054
10.900000 0.030832
10.950000 -0.047963
11.000000 -0.065092
11.050000 -0.034259
11.100000 -0.010278
11.150000 0.034259
11.200000 0.113054
11.250000 0.202127
11.300000 0.284349
11.350000 0.342588
11.400000 0.373422
11.450000 0.404254
11.500000 0.445366
11.550000 0.455643
11.600000 0.438513
11.650000 0.435087
11.700000 0.441940
11.750000 0.421385
11.800000 0.400829
11.850000 0.424810
11.900000 0.462494
11.950000 0.472773
12.000000 0.469347
12.050000 0.493328
12.100000 0.517309
12.150000 0.531013
12.200000 0.524161
12.250000 0.503605
12.300000 0.441940
12.350000 0.346014
12.400000 0.243238
12.450000 0.116480
12.500000 -0.061667
12.550000 -0.229535
12.600000 -0.363144
12.650000 -0.469347
12.700000 -0.585827
12.750000 -0.688604
12.800000 -0.733141
12.850000 -0.746844
12.900000 -0.791381
12.950000 -0.853047
13.000000 -0.863324
13.050000 -0.822214
13.100000 -0.787955
13.150000 -0.763974
13.200000 -0.698882
13.250000 -0.599531
13.300000 -0.486477
13.350000 -0.339164
13.400000 -0.150740
13.450000 0.030833
13.500000 0.198702
13.550000 0.352867
13.600000 0.479624
13.650000 0.531013
13.700000 0.531013
13.750000 0.510457
13.800000 0.441939
13.850000 0.308329
13.900000 0.133609
13.950000 -0.071944
14.000000 -0.301478
14.050000 -0.517310
14.100000 -0.702308
14.150000 -0.890731
14.200000 -1.075730
14.250000 -1.209339
14.300000 -1.308690
14.350000 -1.401189
14.400000 -1.462856
14.450000 -1.497114
14.500000 -1.517669
14.550000 -1.493688
14.600000 -1.404615
14.650000 -1.312116
14.700000 -1.226469
14.750000 -1.079156
14.800000 -0.890732
14.850000 -0.716011
14.900000 -0.551568
14.950000 -0.363144
15.000000 -0.171294
15.050000 0.000000
15.100000 0.154165
15.150000 0.263794
15.200000 0.325460
15.250000 0.356292
15.300000 0.342589
15.350000 0.301478
15.400000 0.267219
15.450000 0.205553
15.500000 0.078795
15.550000 -0.058240
15.600000 -0.157591
15.650000 -0.267220
15.700000 -0.393978
15.750000 -0.496755
15.800000 -0.568698
15.850000 -0.623512
15.900000 -0.678327
15.950000 -0.726289
16.000000 -0.777677
16.050000 -0.825639
16.100000 -0.873602
16.150000 -0.935268
16.200000 -1.010638
16.250000 -1.079156
16.300000 -1.133970
16.350000 -1.168229
16.400000 -1.154525
16.450000 -1.096285
16.500000 -1.031194
16.550000 -0.942120
16.600000 -0.784529
16.650000 -0.585827
16.700000 -0.414533
16.750000 -0.277498
16.800000 -0.137036
16.850000 -0.017130
16.900000 0.071943
16.950000 0.123332
17.000000 0.130184
17.050000 0.092499
17.100000 0.023981
17.150000 -0.051389
17.200000 -0.119906
17.250000 -0.195276
17.300000 -0.284349
17.350000 -0.373422
17.400000 -0.424811
17.450000 -0.445366
17.500000 -0.493329
17.550000 -0.568698
17.600000 -0.609809
17.650000 -0.626938
17.700000 -0.664623
17.750000 -0.702308
17.800000 -0.698882
17.850000 -0.671474
17.900000 -0.650920
17.950000 -0.630364
18.000000 -0.637216
18.050000 -0.668049
18.100000 -0.688604
18.150000 -0.716011
18.200000 -0.746845
18.250000 -0.784529
18.300000 -0.811936
18.350000 -0.829066
18.400000 -0.825640
18.450000 -0.805084
18.500000 -0.781103
18.550000 -0.746844
18.600000 -0.685179
18.650000 -0.616661
18.700000 -0.554995
18.750000 -0.510458
18.800000 -0.479625
18.850000 -0.472773
18.900000 -0.462495
18.950000 -0.438515
19.000000 -0.411108
19.050000 -0.417959
19.100000 -0.448792
19.150000 -0.459069
19.200000 -0.428237
19.250000 -0.390552
19.300000 -0.369996
19.350000 -0.383700
19.400000 -0.421384
19.450000 -0.459069
19.500000 -0.534439
19.550000 -0.654345
19.600000 -0.770825
19.650000 -0.870177
19.700000 -0.986656
19.750000 -1.113414
19.800000 -1.205913
19.850000 -1.264153
19.900000 -1.294987
19.950000 -1.284709
20.000000 -1.229895
20.050000 -1.147673
20.100000 -1.044897
20.150000 -0.911287
20.200000 -0.774251
20.250000 -0.630364
20.300000 -0.483051
20.350000 -0.352867
20.400000 -0.260368
20.450000 -0.157591
20.500000 -0.068518
20.550000 -0.058240
20.600000 -0.102776
20.650000 -0.143888
20.700000 -0.226109
20.750000 -0.376848
20.800000 -0.534439
20.850000 -0.661197
20.900000 -0.791381
20.950000 -0.907861
21.000000 -0.962675
21.050000 -0.976379
21.100000 -0.972953
21.150000 -0.942120
21.200000 -0.877029
21.250000 -0.801658
21.300000 -0.726289
21.350000 -0.661197
21.400000 -0.620086
21.450000 -0.602957
21.500000 -0.596105
21.550000 -0.633790
21.600000 -0.722863
21.650000 -0.808510
21.700000 -0.887306
21.750000 -0.983231
21.800000 -1.068878
21.850000 -1.116841
21.900000 -1.154525
21.950000 -1.181932
22.000000 -1.154525
22.050000 -1.079155
22.100000 -1.034619
22.150000 -1.007212
22.200000 -0.952398
22.250000 -0.877028
22.300000 -0.818788
22.350000 -0.767399
22.400000 -0.705734
22.450000 -0.640642
22.500000 -0.606382
22.550000 -0.589254
22.600000 -0.572124
22.650000 -0.548142
22.700000 -0.548143
22.750000 -0.613235
22.800000 -0.688605
22.850000 -0.739992
22.900000 -0.805084
22.950000 -0.924991
23.000000 -1.034619
23.050000 -1.144248
23.100000 -1.294987
23.150000 -1.449152
23.200000 -1.545077
23.250000 -1.623873
23.300000 -1.706093
23.350000 -1.750630
23.400000 -1.743778
23.450000 -1.726649
23.500000 -1.682112
23.550000 -1.603317
23.600000 -1.521096
23.650000 -1.442300
23.700000 -1.342950
23.750000 -1.243599
23.800000 -1.154525
23.850000 -1.068878
23.900000 -0.976379
23.950000 -0.890732
24.000000 -0.777678
24.050000 -0.637216
24.100000 -0.510458
24.150000 -0.393978
24.200000 -0.253516
24.250000 -0.137036
24.300000 -0.089074
24.350000 -0.054814
24.400000 -0.013704
24.450000 -0.017130
24.500000 -0.092499
24.550000 -0.191850
24.600000 -0.304905
24.650000 -0.421385
24.700000 -0.551568
24.750000 -0.668049
24.800000 -0.750270
24.850000 -0.825640
24.900000 -0.924991
24.950000 -1.044897
25.000000 -1.137396
25.050000 -1.216191
25.100000 -1.325820
25.150000 -1.438874
25.200000 -1.517669
25.250000 -1.555354
25.300000 -1.555355
25.350000 -1.545077
25.400000 -1.531373
25.450000 -1.473133
25.500000 -1.356653
25.550000 -1.226469
25.600000 -1.099711
25.650000 -0.935268
25.700000 -0.750270
25.750000 -0.606383
25.800000 -0.483051
25.850000 -0.352867
25.900000 -0.270646
25.950000 -0.246664
26.000000 -0.229535
26.050000 -0.222683
26.100000 -0.256942
26.150000 -0.311756
26.200000 -0.366570
26.250000 -0.431662
26.300000 -0.507032
26.350000 -0.568698
26.400000 -0.630364
26.450000 -0.698882
26.500000 -0.760548
26.550000 -0.815362
26.600000 -0.846195
26.650000 -0.873603
26.700000 -0.938694
26.750000 -1.038045
26.800000 -1.103137
26.850000 -1.137396
26.900000 -1.199061
26.950000 -1.277857
27.000000 -1.312116
27.050000 -1.312116
27.100000 -1.322394
27.150000 -1.305265
27.200000 -1.243598
27.250000 -1.164803
27.300000 -1.089433
27.350000 -0.996934
27.400000 -0.883880
27.450000 -0.767400
27.500000 -0.664623
27.550000 -0.585827
27.600000 -0.541291
27.650000 -0.507032
27.700000 -0.476199
27.750000 -0.483051
27.800000 -0.500180
27.850000 -0.496754
27.900000 -0.489903
27.950000 -0.520735
28.000000 -0.561847
28.050000 -0.585828
28.100000 -0.616661
28.150000 -0.650919
28.200000 -0.650920
28.250000 -0.650920
28.300000 -0.698882
28.350000 -0.757122
28.400000 -0.791381
28.450000 -0.835917
28.500000 -0.911287
28.550000 -0.979805
28.600000 -1.031193
28.650000 -1.099711
28.700000 -1.195636
28.750000 -1.274431
28.800000 -1.312116
28.850000 -1.346375
28.900000 -1.384060
28.950000 -1.404615
29.000000 -1.377208
29.050000 -1.315542
29.100000 -1.267579
29.150000 -1.216191
29.200000 -1.127118
29.250000 -1.007212
29.300000 -0.907861
29.350000 -0.846195
29.400000 -0.777678
29.450000 -0.712586
29.500000 -0.698882
29.550000 -0.722863
29.600000 -0.753696
29.650000 -0.801659
29.700000 -0.897583
29.750000 -0.990082
29.800000 -1.041471
29.850000 -1.089433
29.900000 -1.147674
29.950000 -1.181932
30.000000 -1.188784
30.050000 -1.195636
30.100000 -1.195636
30.150000 -1.188784
30.200000 -1.181932
30.250000 -1.164803
30.300000 -1.137396
30.350000 -1.120266
30.400000 -1.120266
30.450000 -1.144248
30.500000 -1.168229
30.550000 -1.192210
30.600000 -1.233321
30.650000 -1.301838
30.700000 -1.360078
30.750000 -1.380634
30.800000 -1.373782
30.850000 -1.353227
30.900000 -1.312116
30.950000 -1.250450
31.000000 -1.154525
31.050000 -1.034619
31.100000 -0.914713
31.150000 -0.825640
31.200000 -0.719437
31.250000 -0.606382
31.300000 -0.544717
31.350000 -0.527587
31.400000 -0.503606
31.450000 -0.527588
31.500000 -0.616660
31.550000 -0.705734
31.600000 -0.746844
31.650000 -0.794807
31.700000 -0.853046
31.750000 -0.877028
31.800000 -0.883880
31.850000 -0.901009
31.900000 -0.901009
31.950000 -0.873603
32.000000 -0.839343
32.050000 -0.798233
32.100000 -0.763973
32.150000 -0.774252
32.200000 -0.808510
32.250000 -0.839343
32.300000 -0.890732
32.350000 -0.962676
32.400000 -1.044897
32.450000 -1.140822
32.500000 -1.236746
32.550000 -1.291560
32.600000 -1.305265
32.650000 -1.312117
32.700000 -1.284709
32.750000 -1.223043
32.800000 -1.171655
32.850000 -1.116840
32.900000 -1.051749
32.950000 -1.020916
33.000000 -1.007212
33.050000 -0.986657
33.100000 -1.034619
33.150000 -1.171654
33.200000 -1.274431
33.250000 -1.318968
33.300000 -1.397764
33.350000 -1.459430
33.400000 -1.442300
33.450000 -1.390912
33.500000 -1.322394
33.550000 -1.188784
33.600000 -1.000360
33.650000 -0.832492
33.700000 -0.674901
33.750000 -0.510458
33.800000 -0.404255
33.850000 -0.359719
33.900000 -0.356292
33.950000 -0.393978
34.000000 -0.438514
34.050000 -0.462496
34.100000 -0.513884
34.150000 -0.613235
34.200000 -0.698882
34.250000 -0.750270
34.300000 -0.794807
34.350000 -0.835917
34.400000 -0.849621
34.450000 -0.853047
34.500000 -0.870177
34.550000 -0.914713
34.600000 -0.979805
34.650000 -1.038045
34.700000 -1.092859
34.750000 -1.157951
34.800000 -1.209339
34.850000 -1.250450
34.900000 -1.274431
34.950000 -1.253876
35.000000 -1.202488
35.050000 -1.154525
35.100000 -1.106563
35.150000 -1.031193
35.200000 -0.955824
35.250000 -0.890731
35.300000 -0.818788
35.350000 -0.763974
35.400000 -0.743418
35.450000 -0.743419
35.500000 -0.743418
35.550000 -0.781103
35.600000 -0.839343
35.650000 -0.887306
35.700000 -0.948971
35.750000 -1.007212
35.800000 -1.020916
35.850000 -1.007212
35.900000 -1.024341
35.950000 -1.048323
36.000000 -1.038045
36.050000 -1.007212
36.100000 -0.986657
36.150000 -0.948972
36.200000 -0.901009
36.250000 -0.877028
36.300000 -0.873602
36.350000 -0.887306
36.400000 -0.897583
36.450000 -0.890731
36.500000 -0.890732
36.550000 -0.904435
36.600000 -0.928416
36.650000 -0.935268
36.700000 -0.955824
36.750000 -1.007212
36.800000 -1.082582
36.850000 -1.168229
36.900000 -1.264154
36.950000 -1.363504
37.000000 -1.452577
37.050000 -1.524521
37.100000 -1.569058
37.150000 -1.586188
37.200000 -1.565632
37.250000 -1.490262
37.300000 -1.373783
37.350000 -1.250450
37.400000 -1.120266
37.450000 -0.948972
37.500000 -0.770826
37.550000 -0.633790
37.600000 -0.537865
37.650000 -0.462495
37.700000 -0.428237
37.750000 -0.459070
37.800000 -0.524162
37.850000 -0.582402
37.900000 -0.650919
37.950000 -0.753696
38.000000 -0.859898
38.050000 -0.914713
38.100000 -0.952398
38.150000 -0.990083
38.200000 -1.007212
38.250000 -0.996935
38.300000 -0.993508
38.350000 -1.010638
38.400000 -1.024341
38.450000 -1.038045
38.500000 -1.079155
38.550000 -1.144248
38.600000 -1.209340
38.650000 -1.277857
38.700000 -1.366931
38.750000 -1.459430
38.800000 -1.545077
38.850000 -1.630724
38.900000 -1.706094
38.950000 -1.778037
39.000000 -1.843129
39.050000 -1.884240
39.100000 -1.891092
39.150000 -1.880814
39.200000 -1.846555
39.250000 -1.764334
39.300000 -1.654705
39.350000 -1.534799
39.400000 -1.377208
39.450000 -1.161377
39.500000 -0.948972
39.550000 -0.753696
39.600000 -0.561846
39.650000 -0.390552
39.700000 -0.280923
39.750000 -0.246665
39.800000 -0.267220
39.850000 -0.325460
39.900000 -0.428236
39.950000 -0.585827
40.000000 -0.760547
40.050000 -0.904436
