fit_time[ns] Functional_fit[mV] Thermal_fit[mV]
3.550000 19.080482 19.080485
3.600000 18.658483 18.658484
3.650000 18.245975 18.245975
3.700000 17.842735 17.842735
3.750000 17.448546 17.448545
3.800000 17.063195 17.063193
3.850000 16.686475 16.686473
3.900000 16.318185 16.318182
3.950000 15.958128 15.958125
4.000000 15.606112 15.606108
4.050000 15.261949 15.261945
4.100000 14.925458 14.925453
4.150000 14.596459 14.596454
4.200000 14.274780 14.274775
4.250000 13.960251 13.960246
4.300000 13.652706 13.652702
4.350000 13.351985 13.351981
4.400000 13.057929 13.057926
4.450000 12.770387 12.770384
4.500000 12.489207 12.489205
4.550000 12.214244 12.214242
4.600000 11.945355 11.945354
4.650000 11.682401 11.682401
4.700000 11.425247 11.425247
4.750000 11.173759 11.173759
4.800000 10.927808 10.927809
4.850000 10.687268 10.687270
4.900000 10.452016 10.452019
4.950000 10.221932 10.221935
5.000000 9.996898 9.996901
5.050000 9.776800 9.776803
5.100000 9.561525 9.561528
5.150000 9.350964 9.350968
5.200000 9.145011 9.145015
5.250000 8.943562 8.943566
5.300000 8.746515 8.746518
5.350000 8.553770 8.553774
5.400000 8.365231 8.365234
5.450000 8.180804 8.180806
5.500000 8.000394 8.000396
5.550000 7.823913 7.823914
5.600000 7.651272 7.651273
5.650000 7.482385 7.482385
5.700000 7.317168 7.317168
5.750000 7.155539 7.155538
5.800000 6.997417 6.997416
5.850000 6.842724 6.842723
5.900000 6.691385 6.691382
5.950000 6.543323 6.543320
6.000000 6.398465 6.398463
6.050000 6.256742 6.256739
6.100000 6.118082 6.118079
6.150000 5.982418 5.982415
6.200000 5.849684 5.849681
6.250000 5.719814 5.719811
6.300000 5.592744 5.592741
6.350000 5.468414 5.468411
6.400000 5.346761 5.346759
6.450000 5.227728 5.227726
6.500000 5.111256 5.111255
6.550000 4.997289 4.997288
6.600000 4.885771 4.885771
6.650000 4.776649 4.776649
6.700000 4.669869 4.669870
6.750000 4.565381 4.565382
6.800000 4.463134 4.463135
6.850000 4.363078 4.363079
6.900000 4.265166 4.265167
6.950000 4.169350 4.169352
7.000000 4.075585 4.075587
7.050000 3.983825 3.983828
7.100000 3.894028 3.894030
7.150000 3.806149 3.806151
7.200000 3.720147 3.720149
7.250000 3.635981 3.635983
7.300000 3.553611 3.553613
7.350000 3.472997 3.472999
7.400000 3.394102 3.394104
7.450000 3.316888 3.316889
7.500000 3.241318 3.241319
7.550000 3.167356 3.167357
7.600000 3.094968 3.094969
7.650000 3.024120 3.024120
7.700000 2.954777 2.954777
7.750000 2.886908 2.886907
7.800000 2.820479 2.820478
7.850000 2.755461 2.755460
7.900000 2.691822 2.691821
7.950000 2.629533 2.629531
8.000000 2.568564 2.568562
8.050000 2.508887 2.508885
8.100000 2.450474 2.450472
8.150000 2.393297 2.393295
8.200000 2.337331 2.337329
8.250000 2.282548 2.282546
8.300000 2.228923 2.228921
8.350000 2.176432 2.176430
8.400000 2.125050 2.125048
8.450000 2.074752 2.074751
8.500000 2.025517 2.025516
8.550000 1.977320 1.977320
8.600000 1.930140 1.930140
8.650000 1.883955 1.883955
8.700000 1.838743 1.838743
8.750000 1.794483 1.794484
8.800000 1.751156 1.751157
8.850000 1.708741 1.708742
8.900000 1.667218 1.667220
8.950000 1.626569 1.626571
9.000000 1.586775 1.586777
9.050000 1.547817 1.547819
9.100000 1.509678 1.509680
9.150000 1.472340 1.472342
9.200000 1.435786 1.435788
9.250000 1.400000 1.400001
9.300000 1.364964 1.364965
9.350000 1.330663 1.330664
9.400000 1.297081 1.297082
9.450000 1.264204 1.264205
9.500000 1.232015 1.232015
9.550000 1.200500 1.200501
9.600000 1.169645 1.169646
9.650000 1.139437 1.139436
9.700000 1.109860 1.109859
9.750000 1.080902 1.080901
9.800000 1.052549 1.052548
9.850000 1.024789 1.024788
9.900000 0.997609 0.997608
9.950000 0.970997 0.970995
10.000000 0.944940 0.944939
10.050000 0.919427 0.919426
10.100000 0.894447 0.894446
10.150000 0.869988 0.869987
10.200000 0.846039 0.846038
10.250000 0.822590 0.822588
10.300000 0.799629 0.799627
10.350000 0.777146 0.777145
10.400000 0.755132 0.755131
10.450000 0.733576 0.733575
10.500000 0.712469 0.712468
10.550000 0.691801 0.691801
10.600000 0.671563 0.671563
10.650000 0.651746 0.651747
10.700000 0.632342 0.632342
10.750000 0.613340 0.613341
10.800000 0.594734 0.594734
10.850000 0.576514 0.576514
10.900000 0.558672 0.558673
10.950000 0.541201 0.541202
11.000000 0.524093 0.524094
11.050000 0.507339 0.507340
11.100000 0.490934 0.490935
11.150000 0.474868 0.474869
11.200000 0.459136 0.459137
11.250000 0.443730 0.443731
11.300000 0.428643 0.428644
11.350000 0.413869 0.413869
11.400000 0.399400 0.399401
11.450000 0.385232 0.385232
11.500000 0.371357 0.371357
11.550000 0.357768 0.357769
11.600000 0.344461 0.344461
11.650000 0.331430 0.331430
11.700000 0.318668 0.318667
11.750000 0.306169 0.306169
11.800000 0.293929 0.293929
11.850000 0.281942 0.281941
11.900000 0.270203 0.270202
11.950000 0.258705 0.258705
12.000000 0.247446 0.247445
12.050000 0.236419 0.236418
12.100000 0.225619 0.225618
12.150000 0.215042 0.215041
12.200000 0.204683 0.204682
12.250000 0.194538 0.194537
12.300000 0.184602 0.184602
12.350000 0.174871 0.174870
12.400000 0.165340 0.165340
12.450000 0.156006 0.156006
12.500000 0.146864 0.146864
12.550000 0.137911 0.137910
12.600000 0.129141 0.129141
12.650000 0.120552 0.120553
12.700000 0.112140 0.112141
12.750000 0.103901 0.103902
12.800000 0.095832 0.095832
12.850000 0.087928 0.087929
12.900000 0.080187 0.080188
12.950000 0.072606 0.072606
13.000000 0.065180 0.065180
13.050000 0.057906 0.057907
13.100000 0.050782 0.050783
13.150000 0.043805 0.043806
13.200000 0.036970 0.036971
13.250000 0.030277 0.030277
13.300000 0.023720 0.023721
13.350000 0.017298 0.017299
13.400000 0.011008 0.011008
13.450000 0.004847 0.004847
13.500000 -0.001188 -0.001188
13.550000 -0.007099 -0.007099
13.600000 -0.012889 -0.012889
13.650000 -0.018560 -0.018560
13.700000 -0.024115 -0.024115
13.750000 -0.029556 -0.029556
13.800000 -0.034886 -0.034886
13.850000 -0.040106 -0.040107
13.900000 -0.045220 -0.045220
13.950000 -0.050229 -0.050229
14.000000 -0.055135 -0.055136
14.050000 -0.059941 -0.059942
14.100000 -0.064649 -0.064650
14.150000 -0.069261 -0.069261
14.200000 -0.073778 -0.073778
14.250000 -0.078203 -0.078203
14.300000 -0.082537 -0.082537
14.350000 -0.086783 -0.086783
14.400000 -0.090942 -0.090942
14.450000 -0.095016 -0.095016
14.500000 -0.099007 -0.099007
14.550000 -0.102916 -0.102916
14.600000 -0.106745 -0.106745
14.650000 -0.110497 -0.110497
14.700000 -0.114171 -0.114171
14.750000 -0.117771 -0.117771
14.800000 -0.121297 -0.121297
14.850000 -0.124752 -0.124751
14.900000 -0.128135 -0.128135
14.950000 -0.131450 -0.131450
15.000000 -0.134697 -0.134697
15.050000 -0.137878 -0.137878
15.100000 -0.140994 -0.140994
15.150000 -0.144047 -0.144046
15.200000 -0.147037 -0.147037
15.250000 -0.149967 -0.149966
15.300000 -0.152836 -0.152836
15.350000 -0.155648 -0.155647
15.400000 -0.158401 -0.158401
15.450000 -0.161099 -0.161099
15.500000 -0.163742 -0.163742
15.550000 -0.166332 -0.166332
15.600000 -0.168868 -0.168868
15.650000 -0.171353 -0.171353
15.700000 -0.173787 -0.173787
15.750000 -0.176172 -0.176172
15.800000 -0.178508 -0.178509
15.850000 -0.180797 -0.180798
15.900000 -0.183039 -0.183040
15.950000 -0.185236 -0.185237
16.000000 -0.187388 -0.187389
16.050000 -0.189497 -0.189497
16.100000 -0.191562 -0.191563
16.150000 -0.193586 -0.193586
16.200000 -0.195568 -0.195569
16.250000 -0.197511 -0.197511
16.300000 -0.199413 -0.199414
16.350000 -0.201278 -0.201278
16.400000 -0.203104 -0.203104
16.450000 -0.204893 -0.204893
16.500000 -0.206646 -0.206646
16.550000 -0.208364 -0.208364
16.600000 -0.210046 -0.210046
16.650000 -0.211695 -0.211694
16.700000 -0.213310 -0.213309
16.750000 -0.214892 -0.214892
16.800000 -0.216442 -0.216442
16.850000 -0.217961 -0.217960
16.900000 -0.219449 -0.219448
16.950000 -0.220906 -0.220906
17.000000 -0.222335 -0.222334
17.050000 -0.223734 -0.223734
17.100000 -0.225105 -0.225104
17.150000 -0.226448 -0.226448
17.200000 -0.227764 -0.227764
17.250000 -0.229053 -0.229053
17.300000 -0.230316 -0.230316
17.350000 -0.231554 -0.231554
17.400000 -0.232766 -0.232766
17.450000 -0.233954 -0.233954
17.500000 -0.235118 -0.235118
17.550000 -0.236259 -0.236259
17.600000 -0.237376 -0.237376
17.650000 -0.238471 -0.238471
17.700000 -0.239544 -0.239544
17.750000 -0.240594 -0.240595
17.800000 -0.241624 -0.241624
17.850000 -0.242633 -0.242633
17.900000 -0.243621 -0.243622
17.950000 -0.244590 -0.244590
18.000000 -0.245539 -0.245539
18.050000 -0.246469 -0.246469
18.100000 -0.247380 -0.247380
18.150000 -0.248272 -0.248273
18.200000 -0.249147 -0.249147
18.250000 -0.250004 -0.250004
18.300000 -0.250843 -0.250844
18.350000 -0.251666 -0.251666
18.400000 -0.252472 -0.252472
18.450000 -0.253262 -0.253262
18.500000 -0.254036 -0.254036
18.550000 -0.254794 -0.254794
18.600000 -0.255537 -0.255537
18.650000 -0.256265 -0.256265
18.700000 -0.256978 -0.256978
18.750000 -0.257677 -0.257677
18.800000 -0.258362 -0.258362
18.850000 -0.259033 -0.259033
18.900000 -0.259690 -0.259690
18.950000 -0.260335 -0.260334
19.000000 -0.260966 -0.260966
19.050000 -0.261584 -0.261584
19.100000 -0.262190 -0.262190
19.150000 -0.262784 -0.262784
19.200000 -0.263366 -0.263366
19.250000 -0.263936 -0.263936
19.300000 -0.264495 -0.264494
19.350000 -0.265042 -0.265042
19.400000 -0.265578 -0.265578
19.450000 -0.266104 -0.266104
19.500000 -0.266619 -0.266619
19.550000 -0.267123 -0.267123
19.600000 -0.267618 -0.267618
19.650000 -0.268102 -0.268102
19.700000 -0.268577 -0.268577
19.750000 -0.269042 -0.269042
19.800000 -0.269498 -0.269498
19.850000 -0.269944 -0.269945
19.900000 -0.270382 -0.270382
19.950000 -0.270811 -0.270811
20.000000 -0.271231 -0.271231
20.050000 -0.271643 -0.271643
20.100000 -0.272047 -0.272047
20.150000 -0.272442 -0.272442
20.200000 -0.272830 -0.272830
20.250000 -0.273209 -0.273209
20.300000 -0.273581 -0.273581
20.350000 -0.273946 -0.273946
20.400000 -0.274303 -0.274303
20.450000 -0.274653 -0.274653
20.500000 -0.274996 -0.274996
20.550000 -0.275332 -0.275332
20.600000 -0.275662 -0.275662
20.650000 -0.275985 -0.275985
20.700000 -0.276301 -0.276301
20.750000 -0.276611 -0.276611
20.800000 -0.276915 -0.276914
20.850000 -0.277212 -0.277212
20.900000 -0.277504 -0.277504
20.950000 -0.277790 -0.277790
21.000000 -0.278070 -0.278070
21.050000 -0.278344 -0.278344
21.100000 -0.278613 -0.278613
21.150000 -0.278877 -0.278877
21.200000 -0.279135 -0.279135
21.250000 -0.279388 -0.279388
21.300000 -0.279636 -0.279636
21.350000 -0.279879 -0.279879
21.400000 -0.280117 -0.280117
21.450000 -0.280350 -0.280350
21.500000 -0.280579 -0.280579
21.550000 -0.280803 -0.280803
21.600000 -0.281023 -0.281023
21.650000 -0.281238 -0.281238
21.700000 -0.281449 -0.281449
21.750000 -0.281655 -0.281656
21.800000 -0.281858 -0.281858
21.850000 -0.282056 -0.282057
21.900000 -0.282251 -0.282251
21.950000 -0.282442 -0.282442
22.000000 -0.282628 -0.282628
22.050000 -0.282811 -0.282812
22.100000 -0.282991 -0.282991
22.150000 -0.283167 -0.283167
22.200000 -0.283339 -0.283339
22.250000 -0.283508 -0.283508
22.300000 -0.283673 -0.283673
22.350000 -0.283835 -0.283835
22.400000 -0.283994 -0.283994
22.450000 -0.284150 -0.284150
22.500000 -0.284303 -0.284303
22.550000 -0.284452 -0.284452
22.600000 -0.284599 -0.284599
22.650000 -0.284742 -0.284742
22.700000 -0.284883 -0.284883
22.750000 -0.285021 -0.285021
22.800000 -0.285156 -0.285156
22.850000 -0.285289 -0.285289
22.900000 -0.285418 -0.285418
22.950000 -0.285546 -0.285546
23.000000 -0.285670 -0.285670
23.050000 -0.285792 -0.285792
23.100000 -0.285912 -0.285912
23.150000 -0.286030 -0.286029
23.200000 -0.286145 -0.286144
23.250000 -0.286257 -0.286257
23.300000 -0.286368 -0.286368
23.350000 -0.286476 -0.286476
23.400000 -0.286582 -0.286582
23.450000 -0.286686 -0.286686
23.500000 -0.286788 -0.286788
23.550000 -0.286888 -0.286888
23.600000 -0.286985 -0.286986
23.650000 -0.287081 -0.287081
23.700000 -0.287175 -0.287175
23.750000 -0.287267 -0.287268
23.800000 -0.287358 -0.287358
23.850000 -0.287446 -0.287446
23.900000 -0.287533 -0.287533
23.950000 -0.287618 -0.287618
24.000000 -0.287701 -0.287701
24.050000 -0.287783 -0.287783
24.100000 -0.287863 -0.287863
24.150000 -0.287941 -0.287941
24.200000 -0.288018 -0.288018
24.250000 -0.288093 -0.288093
24.300000 -0.288167 -0.288167
24.350000 -0.288239 -0.288239
24.400000 -0.288310 -0.288310
24.450000 -0.288380 -0.288380
24.500000 -0.288448 -0.288448
24.550000 -0.288515 -0.288515
24.600000 -0.288580 -0.288580
24.650000 -0.288644 -0.288644
24.700000 -0.288707 -0.288707
24.750000 -0.288768 -0.288768
24.800000 -0.288829 -0.288829
24.850000 -0.288888 -0.288888
24.900000 -0.288946 -0.288946
24.950000 -0.289003 -0.289003
25.000000 -0.289058 -0.289058
25.050000 -0.289113 -0.289113
25.100000 -0.289166 -0.289166
25.150000 -0.289219 -0.289219
25.200000 -0.289270 -0.289270
25.250000 -0.289320 -0.289320
25.300000 -0.289370 -0.289370
25.350000 -0.289418 -0.289418
25.400000 -0.289465 -0.289465
25.450000 -0.289512 -0.289512
25.500000 -0.289557 -0.289557
25.550000 -0.289602 -0.289602
25.600000 -0.289646 -0.289646
25.650000 -0.289689 -0.289689
25.700000 -0.289731 -0.289731
25.750000 -0.289772 -0.289772
25.800000 -0.289812 -0.289812
25.850000 -0.289852 -0.289852
25.900000 -0.289890 -0.289890
25.950000 -0.289928 -0.289928
26.000000 -0.289966 -0.289966
26.050000 -0.290002 -0.290002
26.100000 -0.290038 -0.290038
26.150000 -0.290073 -0.290073
26.200000 -0.290107 -0.290107
26.250000 -0.290141 -0.290141
26.300000 -0.290174 -0.290174
26.350000 -0.290206 -0.290206
26.400000 -0.290238 -0.290238
26.450000 -0.290269 -0.290269
26.500000 -0.290299 -0.290299
26.550000 -0.290329 -0.290329
26.600000 -0.290359 -0.290359
26.650000 -0.290387 -0.290387
26.700000 -0.290415 -0.290415
26.750000 -0.290443 -0.290443
26.800000 -0.290470 -0.290470
26.850000 -0.290496 -0.290496
26.900000 -0.290522 -0.290522
26.950000 -0.290548 -0.290548
27.000000 -0.290573 -0.290573
27.050000 -0.290597 -0.290597
27.100000 -0.290621 -0.290621
27.150000 -0.290644 -0.290644
27.200000 -0.290667 -0.290667
27.250000 -0.290690 -0.290690
27.300000 -0.290712 -0.290712
27.350000 -0.290734 -0.290734
27.400000 -0.290755 -0.290755
27.450000 -0.290776 -0.290776
27.500000 -0.290796 -0.290796
27.550000 -0.290816 -0.290816
27.600000 -0.290836 -0.290836
27.650000 -0.290855 -0.290855
27.700000 -0.290874 -0.290874
27.750000 -0.290892 -0.290892
27.800000 -0.290910 -0.290910
27.850000 -0.290928 -0.290928
27.900000 -0.290945 -0.290945
27.950000 -0.290962 -0.290962
28.000000 -0.290979 -0.290979
28.050000 -0.290995 -0.290995
28.100000 -0.291011 -0.291011
28.150000 -0.291027 -0.291027
28.200000 -0.291042 -0.291042
28.250000 -0.291057 -0.291057
28.300000 -0.291072 -0.291072
28.350000 -0.291087 -0.291087
28.400000 -0.291101 -0.291101
28.450000 -0.291115 -0.291115
28.500000 -0.291128 -0.291128
28.550000 -0.291142 -0.291142
28.600000 -0.291155 -0.291155
28.650000 -0.291168 -0.291168
28.700000 -0.291180 -0.291180
28.750000 -0.291193 -0.291193
28.800000 -0.291205 -0.291205
28.850000 -0.291217 -0.291217
28.900000 -0.291228 -0.291228
28.950000 -0.291240 -0.291240
29.000000 -0.291251 -0.291251
29.050000 -0.291262 -0.291262
29.100000 -0.291273 -0.291273
29.150000 -0.291283 -0.291283
29.200000 -0.291293 -0.291293
29.250000 -0.291304 -0.291304
29.300000 -0.291313 -0.291313
29.350000 -0.291323 -0.291323
29.400000 -0.291333 -0.291333
29.450000 -0.291342 -0.291342
29.500000 -0.291351 -0.291351
29.550000 -0.291360 -0.291360
29.600000 -0.291369 -0.291369
29.650000 -0.291378 -0.291378
29.700000 -0.291386 -0.291386
29.750000 -0.291394 -0.291394
29.800000 -0.291402 -0.291402
29.850000 -0.291410 -0.291410
29.900000 -0.291418 -0.291418
29.950000 -0.291426 -0.291426
30.000000 -0.291433 -0.291433
30.050000 -0.291441 -0.291441
30.100000 -0.291448 -0.291448
30.150000 -0.291455 -0.291455
30.200000 -0.291462 -0.291462
30.250000 -0.291469 -0.291469
30.300000 -0.291475 -0.291475
30.350000 -0.291482 -0.291482
30.400000 -0.291488 -0.291488
30.450000 -0.291494 -0.291494
30.500000 -0.291500 -0.291500
30.550000 -0.291506 -0.291506
30.600000 -0.291512 -0.291512
30.650000 -0.291518 -0.291518
30.700000 -0.291524 -0.291524
30.750000 -0.291529 -0.291529
30.800000 -0.291535 -0.291535
30.850000 -0.291540 -0.291540
30.900000 -0.291545 -0.291545
30.950000 -0.291550 -0.291550
31.000000 -0.291555 -0.291555
31.050000 -0.291560 -0.291560
31.100000 -0.291565 -0.291565
31.150000 -0.291570 -0.291570
31.200000 -0.291575 -0.291575
31.250000 -0.291579 -0.291579
31.300000 -0.291584 -0.291584
31.350000 -0.291588 -0.291588
31.400000 -0.291592 -0.291592
31.450000 -0.291596 -0.291596
31.500000 -0.291601 -0.291601
31.550000 -0.291605 -0.291605
31.600000 -0.291609 -0.291609
31.650000 -0.291612 -0.291612
31.700000 -0.291616 -0.291616
31.750000 -0.291620 -0.291620
31.800000 -0.291624 -0.291624
31.850000 -0.291627 -0.291627
31.900000 -0.291631 -0.291631
31.950000 -0.291634 -0.291634
32.000000 -0.291637 -0.291637
32.050000 -0.291641 -0.291641
32.100000 -0.291644 -0.291644
32.150000 -0.291647 -0.291647
32.200000 -0.291650 -0.291650
32.250000 -0.291653 -0.291653
32.300000 -0.291656 -0.291656
32.350000 -0.291659 -0.291659
32.400000 -0.291662 -0.291662
32.450000 -0.291665 -0.291665
32.500000 -0.291668 -0.291668
32.550000 -0.291670 -0.291670
32.600000 -0.291673 -0.291673
32.650000 -0.291676 -0.291676
32.700000 -0.291678 -0.291678
32.750000 -0.291681 -0.291681
32.800000 -0.291683 -0.291683
32.850000 -0.291686 -0.291686
32.900000 -0.291688 -0.291688
32.950000 -0.291690 -0.291690
33.000000 -0.291692 -0.291692
33.050000 -0.291695 -0.291695
33.100000 -0.291697 -0.291697
33.150000 -0.291699 -0.291699
33.200000 -0.291701 -0.291701
33.250000 -0.291703 -0.291703
33.300000 -0.291705 -0.291705
33.350000 -0.291707 -0.291707
33.400000 -0.291709 -0.291709
33.450000 -0.291711 -0.291711
33.500000 -0.291713 -0.291713
33.550000 -0.291715 -0.291715
33.600000 -0.291716 -0.291716
33.650000 -0.291718 -0.291718
33.700000 -0.291720 -0.291720
33.750000 -0.291721 -0.291721
33.800000 -0.291723 -0.291723
33.850000 -0.291725 -0.291725
33.900000 -0.291726 -0.291726
33.950000 -0.291728 -0.291728
34.000000 -0.291729 -0.291729
34.050000 -0.291731 -0.291731
34.100000 -0.291732 -0.291732
34.150000 -0.291734 -0.291734
34.200000 -0.291735 -0.291735
34.250000 -0.291736 -0.291736
34.300000 -0.291738 -0.291738
34.350000 -0.291739 -0.291739
34.400000 -0.291740 -0.291740
34.450000 -0.291742 -0.291742
34.500000 -0.291743 -0.291743
34.550000 -0.291744 -0.291744
34.600000 -0.291745 -0.291745
34.650000 -0.291747 -0.291747
34.700000 -0.291748 -0.291748
34.750000 -0.291749 -0.291749
34.800000 -0.291750 -0.291750
34.850000 -0.291751 -0.291751
34.900000 -0.291752 -0.291752
34.950000 -0.291753 -0.291753
35.000000 -0.291754 -0.291754
35.050000 -0.291755 -0.291755
35.100000 -0.291756 -0.291756
35.150000 -0.291757 -0.291757
35.200000 -0.291758 -0.291758
35.250000 -0.291759 -0.291759
35.300000 -0.291760 -0.291760
35.350000 -0.291761 -0.291761
35.400000 -0.291762 -0.291762
35.450000 -0.291762 -0.291762
35.500000 -0.291763 -0.291763
35.550000 -0.291764 -0.291764
35.600000 -0.291765 -0.291765
35.650000 -0.291766 -0.291766
35.700000 -0.291766 -0.291766
35.750000 -0.291767 -0.291767
35.800000 -0.291768 -0.291768
35.850000 -0.291769 -0.291769
35.900000 -0.291769 -0.291769
35.950000 -0.291770 -0.291770
36.000000 -0.291771 -0.291771
36.050000 -0.291771 -0.291771
36.100000 -0.291772 -0.291772
36.150000 -0.291773 -0.291773
36.200000 -0.291773 -0.291773
36.250000 -0.291774 -0.291774
36.300000 -0.291775 -0.291775
36.350000 -0.291775 -0.291775
36.400000 -0.291776 -0.291776
36.450000 -0.291776 -0.291776
36.500000 -0.291777 -0.291777
36.550000 -0.291777 -0.291777
36.600000 -0.291778 -0.291778
36.650000 -0.291779 -0.291779
36.700000 -0.291779 -0.291779
36.750000 -0.291780 -0.291780
36.800000 -0.291780 -0.291780
36.850000 -0.291781 -0.291781
36.900000 -0.291781 -0.291781
36.950000 -0.291781 -0.291781
37.000000 -0.291782 -0.291782
37.050000 -0.291782 -0.291782
37.100000 -0.291783 -0.291783
37.150000 -0.291783 -0.291783
37.200000 -0.291784 -0.291784
37.250000 -0.291784 -0.291784
37.300000 -0.291785 -0.291785
37.350000 -0.291785 -0.291785
37.400000 -0.291785 -0.291785
37.450000 -0.291786 -0.291786
37.500000 -0.291786 -0.291786
